time,ppg
0.0,31981
0.005,32083
0.01,32042
0.015,32086
0.02,32103
0.025,32005
0.03,32059
0.035,32075
0.04,32096
0.045,32115
0.05,32128
0.055,32157
0.06,32132
0.065,32222
0.07,32249
0.075,32337
0.08,32379
0.085,32489
0.09,32575
0.095,32643
0.1,32737
0.105,32828
0.11,32912
0.115,33029
0.12,33125
0.125,33265
0.13,33356
0.135,33475
0.14,33498
0.145,33660
0.15,33671
0.155,33729
0.16,33789
0.165,33801
0.17,34164
0.175,34119
0.18,34072
0.185,34036
0.19,34055
0.195,33938
0.2,33814
0.205,33768
0.21,33619
0.215,33643
0.22,33428
0.225,33407
0.23,33320
0.235,33166
0.24,33155
0.245,33115
0.25,33041
0.255,32989
0.26,32981
0.265,32931
0.27,32926
0.275,32909
0.28,32946
0.285,32908
0.29,32997
0.295,32984
0.3,33003
0.305,33101
0.31,33197
0.315,33223
0.32,33223
0.325,33320
0.33,33332
0.335,33395
0.34,33452
0.345,33410
0.35,33542
0.355,33533
0.36,33575
0.365,33571
0.37,33586
0.375,33616
0.38,33682
0.385,33706
0.39,33633
0.395,33652
0.4,33576
0.405,33483
0.41,33517
0.415,33482
0.42,33399
0.425,33371
0.43,33322
0.435,33209
0.44,33123
0.445,33104
0.45,33039
0.455,32969
0.46,32953
0.465,32917
0.47,32779
0.475,32761
0.48,32714
0.485,32652
0.49,32615
0.495,32517
0.5,32514
0.505,32521
0.51,32441
0.515,32357
0.52,32371
0.525,32368
0.53,32312
0.535,32257
0.54,32314
0.545,32198
0.55,32246
0.555,32215
0.56,32162
0.565,32240
0.57,32200
0.575,32139
0.58,32197
0.585,32155
0.59,32098
0.595,32138
0.6,32169
0.605,32180
0.61,32160
0.615,32154
0.62,32168
0.625,32142
0.63,32190
0.635,32152
0.64,32156
0.645,32164
0.65,32106
0.655,32117
0.66,32197
0.665,32154
0.67,32131
0.675,32152
0.68,32122
0.685,32149
0.69,32114
0.695,32148
0.7,32081
0.705,32185
0.71,32118
0.715,32079
0.72,32127
0.725,32122
0.73,32140
0.735,32093
0.74,32148
0.745,32264
0.75,32087
0.755,32145
0.76,32121
0.765,32139
0.77,32066
0.775,32090
0.78,32148
0.785,32129
0.79,32189
0.795,32105
0.8,32137
0.805,32235
0.81,32102
0.815,32098
0.82,32129
0.825,32129
0.83,32161
0.835,32137
0.84,32106
0.845,32142
0.85,32232
0.855,32186
0.86,32045
0.865,32146
0.87,32127
0.875,32190
0.88,32174
0.885,32265
0.89,32248
0.895,32270
0.9,32273
0.905,32298
0.91,32352
0.915,32433
0.92,32460
0.925,32489
0.93,32617
0.935,32655
0.94,32730
0.945,32796
0.95,32869
0.955,32970
0.96,32998
0.965,33244
0.97,33335
0.975,33412
0.98,33558
0.985,33630
0.99,33711
0.995,33681
1.0,33821
1.005,33893
1.01,33960
1.015,34304
1.02,34279
1.025,34160
1.03,34080
1.035,34124
1.04,34036
1.045,33990
1.05,33864
1.055,33784
1.06,33627
1.065,33601
1.07,33475
1.075,33413
1.08,33333
1.085,33237
1.09,33185
1.095,33116
1.1,33098
1.105,33054
1.11,32992
1.115,32978
1.12,33059
1.125,33001
1.13,33057
1.135,33061
1.14,33059
1.145,33091
1.15,33167
1.155,33220
1.16,33284
1.165,33269
1.17,33347
1.175,33418
1.18,33531
1.185,33438
1.19,33585
1.195,33591
1.2,33663
1.205,33661
1.21,33716
1.215,33778
1.22,33745
1.225,33751
1.23,33745
1.235,33693
1.24,33720
1.245,33667
1.25,33612
1.255,33601
1.26,33549
1.265,33535
1.27,33452
1.275,33376
1.28,33387
1.285,33307
1.29,33253
1.295,33164
1.3,33073
1.305,32998
1.31,32939
1.315,32922
1.32,32833
1.325,32719
1.33,32718
1.335,32618
1.34,32628
1.345,32535
1.35,32492
1.355,32505
1.36,32464
1.365,32377
1.37,32437
1.375,32463
1.38,32310
1.385,32410
1.39,32303
1.395,32295
1.4,32294
1.405,32237
1.41,32327
1.415,32289
1.42,32237
1.425,32249
1.43,32199
1.435,32236
1.44,32279
1.445,32180
1.45,32223
1.455,32242
1.46,32273
1.465,32282
1.47,32215
1.475,32203
1.48,32245
1.485,32215
1.49,32216
1.495,32265
1.5,32286
1.505,32234
1.51,32216
1.515,32243
1.52,32154
1.525,32221
1.53,32183
1.535,32306
1.54,32245
1.545,32224
1.55,32211
1.555,32127
1.56,32243
1.565,32276
1.57,32190
1.575,32241
1.58,32242
1.585,32159
1.59,32248
1.595,32263
1.6,32222
1.605,32211
1.61,32242
1.615,32157
1.62,32216
1.625,32250
1.63,32167
1.635,32247
1.64,32196
1.645,32136
1.65,32207
1.655,32175
1.66,32222
1.665,32168
1.67,32247
1.675,32183
1.68,32222
1.685,32188
1.69,32197
1.695,32252
1.7,32216
1.705,32194
1.71,32163
1.715,32250
1.72,32235
1.725,32197
1.73,32218
1.735,32172
1.74,32173
1.745,32181
1.75,32225
1.755,32225
1.76,32190
1.765,32248
1.77,32254
1.775,32238
1.78,32278
1.785,32241
1.79,32260
1.795,32266
1.8,32269
1.805,32324
1.81,32281
1.815,32414
1.82,32377
1.825,32449
1.83,32462
1.835,32598
1.84,32695
1.845,32768
1.85,32847
1.855,32855
1.86,32982
1.865,33098
1.87,33188
1.875,33370
1.88,33444
1.885,33540
1.89,33657
1.895,33695
1.9,33777
1.905,33846
1.91,33950
1.915,33983
1.92,34014
1.925,34360
1.93,34256
1.935,34253
1.94,34232
1.945,34117
1.95,34074
1.955,34048
1.96,33961
1.965,33867
1.97,33733
1.975,33629
1.98,33582
1.985,33442
1.99,33386
1.995,33348
2.0,33224
2.005,33162
2.01,33141
2.015,33132
2.02,33108
2.025,33087
2.03,33102
2.035,33036
2.04,33082
2.045,33147
2.05,33143
2.055,33168
2.06,33219
2.065,33279
2.07,33357
2.075,33380
2.08,33479
2.085,33584
2.09,33569
2.095,33669
2.1,33678
2.105,33667
2.11,33733
2.115,33736
2.12,33821
2.125,33768
2.13,33865
2.135,33839
2.14,33738
2.145,33825
2.15,33831
2.155,33718
2.16,33747
2.165,33606
2.17,33633
2.175,33512
2.18,33534
2.185,33393
2.19,33301
2.195,33346
2.2,33349
2.205,33180
2.21,33167
2.215,33077
2.22,32999
2.225,32972
2.23,32950
2.235,32791
2.24,32804
2.245,32746
2.25,32637
2.255,32704
2.26,32677
2.265,32536
2.27,32601
2.275,32511
2.28,32477
2.285,32513
2.29,32447
2.295,32432
2.3,32459
2.305,32436
2.31,32410
2.315,32317
2.32,32301
2.325,32391
2.33,32310
2.335,32343
2.34,32294
2.345,32322
2.35,32279
2.355,32381
2.36,32282
2.365,32312
2.37,32308
2.375,32357
2.38,32260
2.385,32309
2.39,32301
2.395,32327
2.4,32324
2.405,32289
2.41,32314
2.415,32291
2.42,32320
2.425,32299
2.43,32278
2.435,32300
2.44,32314
2.445,32381
2.45,32282
2.455,32310
2.46,32351
2.465,32223
2.47,32234
2.475,32254
2.48,32292
2.485,32383
2.49,32309
2.495,32338
2.5,32286
2.505,32205
2.51,32210
2.515,32329
2.52,32299
2.525,32245
2.53,32332
2.535,32236
2.54,32331
2.545,32342
2.55,32262
2.555,32250
2.56,32320
2.565,32249
2.57,32320
2.575,32245
2.58,32317
2.585,32291
2.59,32272
2.595,32255
2.6,32296
2.605,32219
2.61,32277
2.615,32273
2.62,32312
2.625,32243
2.63,32351
2.635,32279
2.64,32251
2.645,32344
2.65,32357
2.655,32295
2.66,32275
2.665,32315
2.67,32299
2.675,32324
2.68,32407
2.685,32383
2.69,32397
2.695,32432
2.7,32451
2.705,32490
2.71,32538
2.715,32547
2.72,32625
2.725,32777
2.73,32782
2.735,32844
2.74,33016
2.745,33040
2.75,33102
2.755,33272
2.76,33323
2.765,33445
2.77,33580
2.775,33665
2.78,33736
2.785,33829
2.79,33901
2.795,34025
2.8,34003
2.805,34038
2.81,34145
2.815,34368
2.82,34417
2.825,34370
2.83,34263
2.835,34149
2.84,34139
2.845,34060
2.85,33979
2.855,33851
2.86,33796
2.865,33708
2.87,33529
2.875,33534
2.88,33412
2.885,33317
2.89,33268
2.895,33299
2.9,33231
2.905,33106
2.91,33159
2.915,33148
2.92,33153
2.925,33157
2.93,33147
2.935,33263
2.94,33236
2.945,33300
2.95,33339
2.955,33386
2.96,33491
2.965,33532
2.97,33547
2.975,33589
2.98,33656
2.985,33754
2.99,33766
2.995,33807
3.0,33818
3.005,33846
3.01,33882
3.015,33819
3.02,33948
3.025,33858
3.03,33855
3.035,33905
3.04,33839
3.045,33800
3.05,33739
3.055,33660
3.06,33673
3.065,33655
3.07,33522
3.075,33543
3.08,33390
3.085,33340
3.09,33319
3.095,33236
3.1,33196
3.105,33081
3.11,33009
3.115,32920
3.12,32887
3.125,32837
3.13,32774
3.135,32789
3.14,32710
3.145,32621
3.15,32745
3.155,32591
3.16,32546
3.165,32608
3.17,32580
3.175,32475
3.18,32444
3.185,32444
3.19,32505
3.195,32440
3.2,32411
3.205,32429
3.21,32465
3.215,32365
3.22,32395
3.225,32353
3.23,32477
3.235,32460
3.24,32425
3.245,32383
3.25,32409
3.255,32308
3.26,32391
3.265,32332
3.27,32331
3.275,32352
3.28,32363
3.285,32395
3.29,32399
3.295,32382
3.3,32338
3.305,32395
3.31,32365
3.315,32412
3.32,32335
3.325,32268
3.33,32350
3.335,32444
3.34,32382
3.345,32358
3.35,32396
3.355,32382
3.36,32379
3.365,32344
3.37,32364
3.375,32368
3.38,32337
3.385,32320
3.39,32364
3.395,32394
3.4,32382
3.405,32376
3.41,32376
3.415,32451
3.42,32367
3.425,32395
3.43,32428
3.435,32360
3.44,32368
3.445,32397
3.45,32422
3.455,32375
3.46,32381
3.465,32376
3.47,32335
3.475,32427
3.48,32388
3.485,32349
3.49,32423
3.495,32386
3.5,32438
3.505,32505
3.51,32508
3.515,32622
3.52,32581
3.525,32700
3.53,32776
3.535,32881
3.54,32942
3.545,33005
3.55,33094
3.555,33189
3.56,33336
3.565,33378
3.57,33528
3.575,33612
3.58,33726
3.585,33805
3.59,33948
3.595,33926
3.6,34025
3.605,34078
3.61,34126
3.615,34141
3.62,34465
3.625,34467
3.63,34344
3.635,34349
3.64,34242
3.645,34221
3.65,34087
3.655,34005
3.66,33943
3.665,33899
3.67,33774
3.675,33671
3.68,33624
3.685,33459
3.69,33345
3.695,33343
3.7,33296
3.705,33309
3.71,33312
3.715,33168
3.72,33297
3.725,33267
3.73,33253
3.735,33256
3.74,33359
3.745,33310
3.75,33332
3.755,33400
3.76,33395
3.765,33513
3.77,33546
3.775,33615
3.78,33668
3.785,33668
3.79,33801
3.795,33761
3.8,33869
3.805,33814
3.81,33913
3.815,33891
3.82,33937
3.825,33919
3.83,33863
3.835,33894
3.84,33921
3.845,33918
3.85,33813
3.855,33754
3.86,33757
3.865,33733
3.87,33666
3.875,33603
3.88,33603
3.885,33545
3.89,33473
3.895,33348
3.9,33319
3.905,33244
3.91,33136
3.915,33156
3.92,33067
3.925,32988
3.93,33002
3.935,32926
3.94,32880
3.945,32847
3.95,32787
3.955,32677
3.96,32673
3.965,32691
3.97,32598
3.975,32601
3.98,32591
3.985,32608
3.99,32584
3.995,32554
4.0,32501
4.005,32528
4.01,32504
4.015,32470
4.02,32517
4.025,32479
4.03,32428
4.035,32496
4.04,32437
4.045,32464
4.05,32384
4.055,32436
4.06,32400
4.065,32397
4.07,32361
4.075,32505
4.08,32421
4.085,32434
4.09,32464
4.095,32418
4.1,32440
4.105,32372
4.11,32427
4.115,32404
4.12,32436
4.125,32423
4.13,32366
4.135,32349
4.14,32378
4.145,32440
4.15,32428
4.155,32427
4.16,32339
4.165,32314
4.17,32388
4.175,32397
4.18,32387
4.185,32421
4.19,32401
4.195,32364
4.2,32374
4.205,32411
4.21,32408
4.215,32402
4.22,32486
4.225,32394
4.23,32408
4.235,32367
4.24,32390
4.245,32422
4.25,32424
4.255,32398
4.26,32419
4.265,32409
4.27,32342
4.275,32295
4.28,32501
4.285,32454
4.29,32430
4.295,32380
4.3,32410
4.305,32521
4.31,32393
4.315,32507
4.32,32580
4.325,32590
4.33,32655
4.335,32673
4.34,32821
4.345,32763
4.35,32824
4.355,32963
4.36,33092
4.365,33133
4.37,33272
4.375,33319
4.38,33402
4.385,33603
4.39,33715
4.395,33816
4.4,33810
4.405,33873
4.41,33951
4.415,34051
4.42,34132
4.425,34166
4.43,34116
4.435,34500
4.44,34475
4.445,34444
4.45,34391
4.455,34322
4.46,34276
4.465,34176
4.47,34090
4.475,33962
4.48,33905
4.485,33791
4.49,33626
4.495,33632
4.5,33525
4.505,33495
4.51,33394
4.515,33344
4.52,33314
4.525,33276
4.53,33241
4.535,33185
4.54,33318
4.545,33207
4.55,33272
4.555,33336
4.56,33362
4.565,33410
4.57,33463
4.575,33530
4.58,33547
4.585,33695
4.59,33607
4.595,33704
4.6,33733
4.605,33774
4.61,33848
4.615,33930
4.62,33885
4.625,33913
4.63,33986
4.635,33994
4.64,34052
4.645,34018
4.65,33981
4.655,33945
4.66,33942
4.665,33899
4.67,33820
4.675,33827
4.68,33773
4.685,33718
4.69,33655
4.695,33671
4.7,33573
4.705,33518
4.71,33397
4.715,33317
4.72,33278
4.725,33233
4.73,33149
4.735,33094
4.74,33078
4.745,32998
4.75,32900
4.755,32871
4.76,32817
4.765,32805
4.77,32717
4.775,32717
4.78,32716
4.785,32663
4.79,32603
4.795,32590
4.8,32596
4.805,32591
4.81,32588
4.815,32538
4.82,32484
4.825,32572
4.83,32522
4.835,32518
4.84,32508
4.845,32453
4.85,32474
4.855,32491
4.86,32515
4.865,32476
4.87,32359
4.875,32460
4.88,32479
4.885,32511
4.89,32489
4.895,32551
4.9,32511
4.905,32507
4.91,32491
4.915,32406
4.92,32485
4.925,32475
4.93,32434
4.935,32473
4.94,32466
4.945,32433
4.95,32445
4.955,32439
4.96,32456
4.965,32431
4.97,32465
4.975,32376
4.98,32434
4.985,32383
4.99,32425
4.995,32460
5.0,32442
5.005,32436
5.01,32442
5.015,32495
5.02,32398
5.025,32469
5.03,32382
5.035,32419
5.04,32441
5.045,32404
5.05,32442
5.055,32460
5.06,32390
5.065,32430
5.07,32419
5.075,32362
5.08,32425
5.085,32403
5.09,32480
5.095,32401
5.1,32494
5.105,32415
5.11,32506
5.115,32458
5.12,32459
5.125,32476
5.13,32487
5.135,32513
5.14,32536
5.145,32476
5.15,32461
5.155,32432
5.16,32540
5.165,32614
5.17,32638
5.175,32673
5.18,32708
5.185,32757
5.19,32837
5.195,32936
5.2,32941
5.205,33120
5.21,33137
5.215,33253
5.22,33341
5.225,33458
5.23,33541
5.235,33643
5.24,33778
5.245,33842
5.25,34056
5.255,34027
5.26,34081
5.265,34132
5.27,34146
5.275,34111
5.28,34509
5.285,34507
5.29,34403
5.295,34404
5.3,34294
5.305,34259
5.31,34188
5.315,34101
5.32,34004
5.325,33866
5.33,33828
5.335,33689
5.34,33632
5.345,33566
5.35,33460
5.355,33365
5.36,33384
5.365,33283
5.37,33264
5.375,33241
5.38,33306
5.385,33275
5.39,33214
5.395,33344
5.4,33423
5.405,33450
5.41,33407
5.415,33478
5.42,33543
5.425,33609
5.43,33632
5.435,33644
5.44,33763
5.445,33807
5.45,33784
5.455,33861
5.46,33922
5.465,33944
5.47,33989
5.475,34018
5.48,34021
5.485,34002
5.49,33955
5.495,34016
5.5,34026
5.505,34022
5.51,33918
5.515,33880
5.52,33890
5.525,33840
5.53,33747
5.535,33703
5.54,33589
5.545,33575
5.55,33459
5.555,33418
5.56,33354
5.565,33276
5.57,33153
5.575,33137
5.58,33119
5.585,33047
5.59,32981
5.595,32959
5.6,32920
5.605,32881
5.61,32779
5.615,32771
5.62,32724
5.625,32673
5.63,32622
5.635,32647
5.64,32596
5.645,32685
5.65,32586
5.655,32566
5.66,32546
5.665,32616
5.67,32505
5.675,32524
5.68,32494
5.685,32511
5.69,32508
5.695,32544
5.7,32449
5.705,32496
5.71,32551
5.715,32472
5.72,32481
5.725,32454
5.73,32389
5.735,32478
5.74,32522
5.745,32462
5.75,32410
5.755,32485
5.76,32477
5.765,32509
5.77,32505
5.775,32461
5.78,32484
5.785,32404
5.79,32508
5.795,32473
5.8,32505
5.805,32503
5.81,32453
5.815,32457
5.82,32430
5.825,32387
5.83,32455
5.835,32465
5.84,32419
5.845,32483
5.85,32460
5.855,32472
5.86,32427
5.865,32391
5.87,32481
5.875,32475
5.88,32448
5.885,32436
5.89,32440
5.895,32445
5.9,32431
5.905,32376
5.91,32476
5.915,32393
5.92,32434
5.925,32435
5.93,32454
5.935,32386
5.94,32487
5.945,32467
5.95,32470
5.955,32488
5.96,32413
5.965,32329
5.97,32453
5.975,32489
5.98,32483
5.985,32423
5.99,32440
5.995,32455
6.0,32381
6.005,32425
6.01,32430
6.015,32516
6.02,32442
6.025,32532
6.03,32488
6.035,32442
6.04,32601
6.045,32509
6.05,32594
6.055,32635
6.06,32594
6.065,32616
6.07,32752
6.075,32779
6.08,32802
6.085,32884
6.09,32994
6.095,33134
6.1,33187
6.105,33323
6.11,33465
6.115,33559
6.12,33672
6.125,33769
6.13,33767
6.135,33961
6.14,34013
6.145,34068
6.15,34092
6.155,34117
6.16,34162
6.165,34536
6.17,34483
6.175,34469
6.18,34434
6.185,34423
6.19,34319
6.195,34245
6.2,34210
6.205,34058
6.21,33995
6.215,33839
6.22,33794
6.225,33696
6.23,33614
6.235,33515
6.24,33427
6.245,33396
6.25,33344
6.255,33363
6.26,33334
6.265,33245
6.27,33308
6.275,33276
6.28,33326
6.285,33317
6.29,33314
6.295,33442
6.3,33465
6.305,33453
6.31,33480
6.315,33581
6.32,33611
6.325,33693
6.33,33780
6.335,33859
6.34,33839
6.345,33943
6.35,33971
6.355,33944
6.36,33924
6.365,34032
6.37,34033
6.375,34099
6.38,34061
6.385,34025
6.39,34038
6.395,33913
6.4,33924
6.405,33867
6.41,33895
6.415,33802
6.42,33616
6.425,33717
6.43,33574
6.435,33571
6.44,33461
6.445,33421
6.45,33370
6.455,33289
6.46,33184
6.465,33207
6.47,33112
6.475,33040
6.48,33012
6.485,32917
6.49,32956
6.495,32852
6.5,32817
6.505,32779
6.51,32699
6.515,32659
6.52,32682
6.525,32662
6.53,32675
6.535,32624
6.54,32551
6.545,32594
6.55,32592
6.555,32586
6.56,32552
6.565,32488
6.57,32566
6.575,32491
6.58,32533
6.585,32450
6.59,32530
6.595,32471
6.6,32535
6.605,32556
6.61,32532
6.615,32446
6.62,32452
6.625,32453
6.63,32506
6.635,32493
6.64,32485
6.645,32489
6.65,32497
6.655,32498
6.66,32534
6.665,32470
6.67,32479
6.675,32403
6.68,32421
6.685,32443
6.69,32424
6.695,32473
6.7,32502
6.705,32448
6.71,32445
6.715,32443
6.72,32465
6.725,32440
6.73,32474
6.735,32468
6.74,32469
6.745,32483
6.75,32456
6.755,32459
6.76,32516
6.765,32450
6.77,32480
6.775,32452
6.78,32433
6.785,32432
6.79,32418
6.795,32447
6.8,32424
6.805,32430
6.81,32489
6.815,32440
6.82,32485
6.825,32454
6.83,32476
6.835,32423
6.84,32452
6.845,32544
6.85,32482
6.855,32492
6.86,32470
6.865,32500
6.87,32437
6.875,32460
6.88,32522
6.885,32556
6.89,32535
6.895,32572
6.9,32601
6.905,32648
6.91,32659
6.915,32706
6.92,32818
6.925,32829
6.93,32935
6.935,33032
6.94,33110
6.945,33223
6.95,33301
6.955,33421
6.96,33495
6.965,33611
6.97,33760
6.975,33853
6.98,33914
6.985,34024
6.99,34087
6.995,34140
7.0,34232
7.005,34184
7.01,34543
7.015,34528
7.02,34473
7.025,34393
7.03,34400
7.035,34313
7.04,34223
7.045,34133
7.05,34039
7.055,33909
7.06,33856
7.065,33687
7.07,33661
7.075,33526
7.08,33492
7.085,33466
7.09,33376
7.095,33324
7.1,33327
7.105,33277
7.11,33261
7.115,33261
7.12,33339
7.125,33327
7.13,33347
7.135,33321
7.14,33426
7.145,33401
7.15,33514
7.155,33507
7.16,33670
7.165,33593
7.17,33750
7.175,33785
7.18,33740
7.185,33840
7.19,33941
7.195,33964
7.2,33893
7.205,33956
7.21,33948
7.215,33962
7.22,33977
7.225,34059
7.23,33984
7.235,33949
7.24,33917
7.245,33918
7.25,33877
7.255,33773
7.26,33807
7.265,33659
7.27,33629
7.275,33593
7.28,33574
7.285,33435
7.29,33392
7.295,33363
7.3,33274
7.305,33229
7.31,33164
7.315,33077
7.32,33034
7.325,32991
7.33,32907
7.335,32918
7.34,32746
7.345,32744
7.35,32793
7.355,32723
7.36,32654
7.365,32664
7.37,32665
7.375,32584
7.38,32613
7.385,32564
7.39,32550
7.395,32538
7.4,32569
7.405,32479
7.41,32498
7.415,32528
7.42,32453
7.425,32435
7.43,32507
7.435,32483
7.44,32474
7.445,32481
7.45,32438
7.455,32575
7.46,32432
7.465,32450
7.47,32413
7.475,32447
7.48,32515
7.485,32459
7.49,32479
7.495,32438
7.5,32520
7.505,32459
7.51,32407
7.515,32478
7.52,32436
7.525,32470
7.53,32452
7.535,32455
7.54,32449
7.545,32410
7.55,32388
7.555,32476
7.56,32435
7.565,32449
7.57,32421
7.575,32364
7.58,32389
7.585,32485
7.59,32405
7.595,32418
7.6,32378
7.605,32411
7.61,32416
7.615,32420
7.62,32425
7.625,32404
7.63,32405
7.635,32424
7.64,32436
7.645,32418
7.65,32486
7.655,32430
7.66,32428
7.665,32399
7.67,32460
7.675,32388
7.68,32368
7.685,32394
7.69,32455
7.695,32397
7.7,32492
7.705,32454
7.71,32412
7.715,32474
7.72,32565
7.725,32494
7.73,32506
7.735,32606
7.74,32675
7.745,32712
7.75,32718
7.755,32799
7.76,32874
7.765,32982
7.77,33102
7.775,33113
7.78,33261
7.785,33305
7.79,33412
7.795,33464
7.8,33577
7.805,33724
7.81,33775
7.815,33930
7.82,33960
7.825,34052
7.83,34102
7.835,34134
7.84,34176
7.845,34541
7.85,34600
7.855,34415
7.86,34424
7.865,34347
7.87,34250
7.875,34212
7.88,34081
7.885,34016
7.89,33967
7.895,33753
7.9,33740
7.905,33658
7.91,33524
7.915,33502
7.92,33430
7.925,33349
7.93,33360
7.935,33236
7.94,33283
7.945,33240
7.95,33210
7.955,33250
7.96,33262
7.965,33330
7.97,33279
7.975,33366
7.98,33400
7.985,33522
7.99,33476
7.995,33606
8.0,33558
8.005,33686
8.01,33719
8.015,33786
8.02,33792
8.025,33787
8.03,33837
8.035,33969
8.04,33952
8.045,33929
8.05,34002
8.055,33944
8.06,33938
8.065,33907
8.07,33972
8.075,33972
8.08,33832
8.085,33836
8.09,33814
8.095,33804
8.1,33586
8.105,33618
8.11,33574
8.115,33433
8.12,33436
8.125,33362
8.13,33316
8.135,33204
8.14,33176
8.145,33078
8.15,33062
8.155,32989
8.16,32916
8.165,32828
8.17,32892
8.175,32828
8.18,32780
8.185,32687
8.19,32665
8.195,32707
8.2,32646
8.205,32564
8.21,32575
8.215,32559
8.22,32529
8.225,32488
8.23,32554
8.235,32518
8.24,32480
8.245,32422
8.25,32450
8.255,32464
8.26,32490
8.265,32440
8.27,32489
8.275,32451
8.28,32415
8.285,32339
8.29,32394
8.295,32380
8.3,32426
8.305,32442
8.31,32478
8.315,32426
8.32,32383
8.325,32507
8.33,32432
8.335,32410
8.34,32409
8.345,32368
8.35,32438
8.355,32428
8.36,32470
8.365,32451
8.37,32442
8.375,32454
8.38,32398
8.385,32391
8.39,32404
8.395,32360
8.4,32398
8.405,32390
8.41,32425
8.415,32400
8.42,32330
8.425,32399
8.43,32448
8.435,32331
8.44,32369
8.445,32397
8.45,32348
8.455,32377
8.46,32400
8.465,32352
8.47,32413
8.475,32421
8.48,32367
8.485,32421
8.49,32469
8.495,32436
8.5,32474
8.505,32501
8.51,32494
8.515,32568
8.52,32582
8.525,32574
8.53,32678
8.535,32746
8.54,32808
8.545,32828
8.55,32947
8.555,33066
8.56,33119
8.565,33252
8.57,33359
8.575,33417
8.58,33549
8.585,33621
8.59,33772
8.595,33827
8.6,33898
8.605,33995
8.61,34060
8.615,34128
8.62,34167
8.625,34096
8.63,34441
8.635,34459
8.64,34430
8.645,34367
8.65,34396
8.655,34268
8.66,34141
8.665,34080
8.67,34007
8.675,33875
8.68,33703
8.685,33676
8.69,33586
8.695,33580
8.7,33364
8.705,33422
8.71,33307
8.715,33304
8.72,33229
8.725,33226
8.73,33251
8.735,33215
8.74,33261
8.745,33240
8.75,33256
8.755,33297
8.76,33328
8.765,33387
8.77,33489
8.775,33449
8.78,33484
8.785,33596
8.79,33709
8.795,33737
8.8,33794
8.805,33835
8.81,33803
8.815,33867
8.82,33795
8.825,33890
8.83,33948
8.835,33877
8.84,33858
8.845,33877
8.85,33916
8.855,33928
8.86,33949
8.865,33871
8.87,33723
8.875,33646
8.88,33682
8.885,33658
8.89,33502
8.895,33479
8.9,33417
8.905,33369
8.91,33295
8.915,33255
8.92,33210
8.925,33111
8.93,33075
8.935,33061
8.94,32896
8.945,32842
8.95,32848
8.955,32850
8.96,32747
8.965,32740
8.97,32654
8.975,32665
8.98,32580
8.985,32600
8.99,32566
8.995,32545
9.0,32561
9.005,32534
9.01,32459
9.015,32500
9.02,32395
9.025,32483
9.03,32538
9.035,32450
9.04,32443
9.045,32422
9.05,32445
9.055,32394
9.06,32431
9.065,32394
9.07,32385
9.075,32402
9.08,32393
9.085,32331
9.09,32466
9.095,32394
9.1,32326
9.105,32424
9.11,32383
9.115,32390
9.12,32406
9.125,32347
9.13,32272
9.135,32373
9.14,32384
9.145,32410
9.15,32345
9.155,32361
9.16,32384
9.165,32357
9.17,32358
9.175,32375
9.18,32328
9.185,32420
9.19,32328
9.195,32362
9.2,32347
9.205,32332
9.21,32376
9.215,32392
9.22,32407
9.225,32374
9.23,32336
9.235,32382
9.24,32298
9.245,32350
9.25,32366
9.255,32367
9.26,32304
9.265,32290
9.27,32403
9.275,32323
9.28,32281
9.285,32295
9.29,32339
9.295,32380
9.3,32336
9.305,32378
9.31,32342
9.315,32350
9.32,32368
9.325,32318
9.33,32341
9.335,32316
9.34,32307
9.345,32353
9.35,32299
9.355,32332
9.36,32301
9.365,32328
9.37,32314
9.375,32376
9.38,32344
9.385,32349
9.39,32414
9.395,32260
9.4,32337
9.405,32295
9.41,32382
9.415,32424
9.42,32462
9.425,32485
9.43,32488
9.435,32633
9.44,32638
9.445,32683
9.45,32726
9.455,32862
9.46,32917
9.465,33013
9.47,33137
9.475,33241
9.48,33311
9.485,33493
9.49,33517
9.495,33615
9.5,33762
9.505,33843
9.51,33918
9.515,33965
9.52,34031
9.525,34044
9.53,34023
9.535,34431
9.54,34348
9.545,34340
9.55,34324
9.555,34234
9.56,34257
9.565,34023
9.57,33955
9.575,33890
9.58,33839
9.585,33685
9.59,33549
9.595,33554
9.6,33399
9.605,33353
9.61,33330
9.615,33222
9.62,33189
9.625,33193
9.63,33150
9.635,33160
9.64,33118
9.645,33160
9.65,33146
9.655,33158
9.66,33312
9.665,33307
9.67,33369
9.675,33350
9.68,33436
9.685,33482
9.69,33491
9.695,33613
9.7,33617
9.705,33683
9.71,33678
9.715,33807
9.72,33831
9.725,33845
9.73,33818
9.735,33845
9.74,33914
9.745,33858
9.75,33868
9.755,33847
9.76,33778
9.765,33842
9.77,33679
9.775,33715
9.78,33655
9.785,33547
9.79,33559
9.795,33506
9.8,33426
9.805,33329
9.81,33309
9.815,33267
9.82,33170
9.825,33159
9.83,33065
9.835,33001
9.84,32965
9.845,32835
9.85,32787
9.855,32775
9.86,32729
9.865,32722
9.87,32670
9.875,32599
9.88,32568
9.885,32521
9.89,32492
9.895,32465
9.9,32493
9.905,32424
9.91,32412
9.915,32416
9.92,32380
9.925,32379
9.93,32299
9.935,32382
9.94,32351
9.945,32362
9.95,32363
9.955,32278
9.96,32428
9.965,32343
9.97,32341
9.975,32267
9.98,32352
9.985,32342
9.99,32312
9.995,32332
10.0,32368
10.005,32308
10.01,32286
10.015,32365
10.02,32325
10.025,32307
10.03,32395
10.035,32317
10.04,32303
10.045,32317
10.05,32292
10.055,32313
10.06,32309
10.065,32278
10.07,32291
10.075,32310
10.08,32311
10.085,32317
10.09,32323
10.095,32302
10.1,32311
10.105,32277
10.11,32280
10.115,32325
10.12,32216
10.125,32299
10.13,32398
10.135,32216
10.14,32335
10.145,32217
10.15,32292
10.155,32336
10.16,32329
10.165,32242
10.17,32226
10.175,32220
10.18,32296
10.185,32255
10.19,32269
10.195,32277
10.2,32281
10.205,32285
10.21,32269
10.215,32207
10.22,32317
10.225,32166
10.23,32310
10.235,32245
10.24,32262
10.245,32254
10.25,32265
10.255,32284
10.26,32284
10.265,32266
10.27,32350
10.275,32317
10.28,32409
10.285,32383
10.29,32396
10.295,32477
10.3,32539
10.305,32528
10.31,32579
10.315,32710
10.32,32700
10.325,32790
10.33,32918
10.335,32966
10.34,33023
10.345,33157
10.35,33338
10.355,33455
10.36,33556
10.365,33648
10.37,33682
10.375,33833
10.38,33921
10.385,33912
10.39,34014
10.395,33993
10.4,34346
10.405,34341
10.41,34246
10.415,34308
10.42,34167
10.425,34124
10.43,34030
10.435,33976
10.44,33881
10.445,33770
10.45,33723
10.455,33587
10.46,33472
10.465,33299
10.47,33316
10.475,33248
10.48,33170
10.485,33124
10.49,33141
10.495,33133
10.5,33150
10.505,33121
10.51,33061
10.515,33113
10.52,33079
10.525,33187
10.53,33211
10.535,33220
10.54,33286
10.545,33331
10.55,33369
10.555,33492
10.56,33609
10.565,33578
10.57,33634
10.575,33647
10.58,33669
10.585,33796
10.59,33734
10.595,33785
10.6,33783
10.605,33818
10.61,33797
10.615,33814
10.62,33734
10.625,33756
10.63,33782
10.635,33661
10.64,33634
10.645,33661
10.65,33575
10.655,33543
10.66,33365
10.665,33389
10.67,33274
10.675,33204
10.68,33203
10.685,33165
10.69,33003
10.695,32953
10.7,32910
10.705,32867
10.71,32766
10.715,32841
10.72,32730
10.725,32648
10.73,32598
10.735,32659
10.74,32619
10.745,32486
10.75,32485
10.755,32490
10.76,32376
10.765,32375
10.77,32426
10.775,32334
10.78,32328
10.785,32281
10.79,32291
10.795,32332
10.8,32269
10.805,32243
10.81,32261
10.815,32342
10.82,32279
10.825,32247
10.83,32269
10.835,32276
10.84,32261
10.845,32188
10.85,32261
10.855,32240
10.86,32276
10.865,32195
10.87,32279
10.875,32222
10.88,32176
10.885,32284
10.89,32215
10.895,32246
10.9,32225
10.905,32269
10.91,32268
10.915,32266
10.92,32250
10.925,32164
10.93,32160
10.935,32227
10.94,32184
10.945,32234
10.95,32222
10.955,32163
10.96,32175
10.965,32170
10.97,32178
10.975,32201
10.98,32232
10.985,32255
10.99,32169
10.995,32183
11.0,32258
11.005,32233
11.01,32208
11.015,32113
11.02,32160
11.025,32202
11.03,32173
11.035,32266
11.04,32196
11.045,32202
11.05,32151
11.055,32152
11.06,32165
11.065,32166
11.07,32180
11.075,32202
11.08,32198
11.085,32227
11.09,32143
11.095,32203
11.1,32208
11.105,32263
11.11,32206
11.115,32236
11.12,32208
11.125,32270
11.13,32290
11.135,32278
11.14,32316
11.145,32368
11.15,32434
11.155,32422
11.16,32554
11.165,32575
11.17,32730
11.175,32796
11.18,32784
11.185,32871
11.19,33084
11.195,33122
11.2,33226
11.205,33297
11.21,33413
11.215,33549
11.22,33637
11.225,33670
11.23,33821
11.235,33850
11.24,33852
11.245,33955
11.25,33928
11.255,34283
11.26,34212
11.265,34207
11.27,34082
11.275,34089
11.28,33943
11.285,33918
11.29,33728
11.295,33722
11.3,33654
11.305,33549
11.31,33483
11.315,33313
11.32,33330
11.325,33260
11.33,33097
11.335,33061
11.34,33030
11.345,33022
11.35,33012
11.355,32909
11.36,33024
11.365,33006
11.37,33001
11.375,33102
11.38,33091
11.385,33186
11.39,33210
11.395,33229
11.4,33334
11.405,33374
11.41,33379
11.415,33390
11.42,33478
11.425,33566
11.43,33578
11.435,33688
11.44,33665
11.445,33688
11.45,33715
11.455,33680
11.46,33713
11.465,33690
11.47,33619
11.475,33622
11.48,33688
11.485,33614
11.49,33587
11.495,33494
11.5,33477
11.505,33472
11.51,33390
11.515,33306
11.52,33317
11.525,33194
11.53,33118
11.535,33106
11.54,32936
11.545,32955
11.55,32831
11.555,32782
11.56,32728
11.565,32702
11.57,32649
11.575,32607
11.58,32558
11.585,32559
11.59,32530
11.595,32459
11.6,32429
11.605,32358
11.61,32306
11.615,32344
11.62,32303
11.625,32314
11.63,32201
11.635,32350
11.64,32194
11.645,32230
11.65,32255
11.655,32161
11.66,32184
11.665,32124
11.67,32140
11.675,32117
11.68,32186
11.685,32189
11.69,32164
11.695,32218
11.7,32220
11.705,32167
11.71,32156
11.715,32152
11.72,32144
11.725,32206
11.73,32165
11.735,32142
11.74,32144
11.745,32171
11.75,32135
11.755,32159
11.76,32145
11.765,32194
11.77,32185
11.775,32090
11.78,32134
11.785,32164
11.79,32121
11.795,32165
11.8,32146
11.805,32154
11.81,32129
11.815,32141
11.82,32147
11.825,32074
11.83,32092
11.835,32087
11.84,32184
11.845,32133
11.85,32134
11.855,32126
11.86,32100
11.865,32090
11.87,32147
11.875,32102
11.88,32172
11.885,32122
11.89,32119
11.895,32108
11.9,32115
11.905,32121
11.91,32179
11.915,32214
11.92,32094
11.925,32154
11.93,32183
11.935,32139
11.94,32168
11.945,32198
11.95,32156
11.955,32301
11.96,32316
11.965,32361
11.97,32423
11.975,32491
11.98,32636
11.985,32636
11.99,32745
11.995,32788
12.0,32917
12.005,32996
12.01,33107
12.015,33186
12.02,33295
12.025,33444
12.03,33520
12.035,33600
12.04,33640
12.045,33744
12.05,33696
12.055,33861
12.06,33849
12.065,34190
12.07,34207
12.075,34119
12.08,34122
12.085,34012
12.09,33975
12.095,33859
12.1,33795
12.105,33742
12.11,33569
12.115,33474
12.12,33390
12.125,33323
12.13,33328
12.135,33133
12.14,33014
12.145,33009
12.15,32931
12.155,32935
12.16,32933
12.165,32887
12.17,32896
12.175,32862
12.18,32954
12.185,32947
12.19,33046
12.195,33084
12.2,33059
12.205,33125
12.21,33191
12.215,33269
12.22,33234
12.225,33344
12.23,33464
12.235,33441
12.24,33497
12.245,33528
12.25,33520
12.255,33626
12.26,33623
12.265,33635
12.27,33663
12.275,33666
12.28,33563
12.285,33634
12.29,33574
12.295,33572
12.3,33505
12.305,33458
12.31,33477
12.315,33390
12.32,33324
12.325,33264
12.33,33215
12.335,33147
12.34,32997
12.345,32985
12.35,32942
12.355,32912
12.36,32871
12.365,32726
12.37,32770
12.375,32647
12.38,32608
12.385,32520
12.39,32470
12.395,32500
12.4,32400
12.405,32367
12.41,32379
12.415,32369
12.42,32225
12.425,32248
12.43,32232
12.435,32279
12.44,32285
12.445,32179
12.45,32181
12.455,32187
12.46,32188
12.465,32126
12.47,32160
12.475,32097
12.48,32020
12.485,32062
12.49,32115
12.495,32131
12.5,32018
12.505,32031
12.51,32092
12.515,31969
12.52,32109
12.525,32123
12.53,31976
12.535,32110
12.54,32073
12.545,32130
12.55,32087
12.555,32066
12.56,32078
12.565,32106
12.57,32077
12.575,32070
12.58,32015
12.585,32083
12.59,32065
12.595,32129
12.6,32061
12.605,32057
12.61,32036
12.615,32083
12.62,32048
12.625,32029
12.63,32111
12.635,32116
12.64,32034
12.645,32012
12.65,32088
12.655,32016
12.66,32147
12.665,32039
12.67,32077
12.675,31994
12.68,32039
12.685,32078
12.69,32054
12.695,32017
12.7,32124
12.705,32062
12.71,32026
12.715,32013
12.72,32025
12.725,32084
12.73,32009
12.735,32041
12.74,32013
12.745,32093
12.75,32049
12.755,32095
12.76,32096
12.765,32069
12.77,32134
12.775,32165
12.78,32118
12.785,32218
12.79,32361
12.795,32268
12.8,32356
12.805,32346
12.81,32480
12.815,32519
12.82,32652
12.825,32714
12.83,32770
12.835,32955
12.84,33012
12.845,33058
12.85,33203
12.855,33270
12.86,33418
12.865,33493
12.87,33563
12.875,33671
12.88,33657
12.885,33780
12.89,33698
12.895,34161
12.9,34096
12.905,34051
12.91,33989
12.915,33977
12.92,33880
12.925,33799
12.93,33754
12.935,33607
12.94,33517
12.945,33444
12.95,33373
12.955,33238
12.96,33166
12.965,33085
12.97,33044
12.975,33014
12.98,32880
12.985,32875
12.99,32854
12.995,32865
13.0,32896
13.005,32849
13.01,32874
13.015,32933
13.02,32879
13.025,32934
13.03,32990
13.035,33053
13.04,33112
13.045,33137
13.05,33273
13.055,33235
13.06,33304
13.065,33399
13.07,33433
13.075,33444
13.08,33494
13.085,33539
13.09,33532
13.095,33572
13.1,33524
13.105,33561
13.11,33493
13.115,33507
13.12,33477
13.125,33536
13.13,33439
13.135,33426
13.14,33335
13.145,33310
13.15,33251
13.155,33171
13.16,33171
13.165,33015
13.17,33033
13.175,33041
13.18,32848
13.185,32814
13.19,32691
13.195,32685
13.2,32563
13.205,32592
13.21,32497
13.215,32396
13.22,32369
13.225,32314
13.23,32320
13.235,32324
13.24,32244
13.245,32185
13.25,32169
13.255,32179
13.26,32063
13.265,32154
13.27,32130
13.275,32009
13.28,32129
13.285,32014
13.29,32055
13.295,32097
13.3,31986
13.305,31971
13.31,31992
13.315,31988
13.32,32018
13.325,31999
13.33,31997
13.335,31994
13.34,32002
13.345,31974
13.35,32015
13.355,32001
13.36,31961
13.365,32064
13.37,31948
13.375,32020
13.38,31964
13.385,32003
13.39,32007
13.395,32018
13.4,32037
13.405,31952
13.41,32087
13.415,31995
13.42,31949
13.425,31927
13.43,32062
13.435,32035
13.44,31973
13.445,32000
13.45,32019
13.455,31973
13.46,31952
13.465,31965
13.47,31996
13.475,31965
13.48,31917
13.485,31989
13.49,31896
13.495,31931
13.5,32003
13.505,31965
13.51,31963
13.515,31957
13.52,31990
13.525,31949
13.53,31878
13.535,31958
13.54,31835
13.545,31871
13.55,32003
13.555,31982
13.56,31926
13.565,31939
13.57,31944
13.575,31977
13.58,31910
13.585,31906
13.59,31915
13.595,31942
13.6,31947
13.605,31923
13.61,31967
13.615,31903
13.62,31941
13.625,31922
13.63,31916
13.635,32006
13.64,31958
13.645,31945
13.65,32000
13.655,31981
13.66,32064
13.665,32103
13.67,32144
13.675,32077
13.68,32160
13.685,32289
13.69,32278
13.695,32404
13.7,32493
13.705,32473
13.71,32662
13.715,32744
13.72,32852
13.725,32988
13.73,33050
13.735,33142
13.74,33264
13.745,33326
13.75,33446
13.755,33433
13.76,33637
13.765,33607
13.77,33683
13.775,33696
13.78,34015
13.785,33998
13.79,33963
13.795,33852
13.8,33830
13.805,33820
13.81,33655
13.815,33564
13.82,33585
13.825,33455
13.83,33372
13.835,33220
13.84,33141
13.845,33078
13.85,32996
13.855,32908
13.86,32804
13.865,32788
13.87,32727
13.875,32820
13.88,32738
13.885,32746
13.89,32774
13.895,32783
13.9,32829
13.905,32821
13.91,32828
13.915,32993
13.92,32951
13.925,33011
13.93,33051
13.935,33113
13.94,33186
13.945,33262
13.95,33244
13.955,33336
13.96,33340
13.965,33443
13.97,33381
13.975,33451
13.98,33488
13.985,33419
13.99,33472
13.995,33466
14.0,33416
14.005,33414
14.01,33429
14.015,33365
14.02,33299
14.025,33258
14.03,33230
14.035,33203
14.04,33125
14.045,33060
14.05,33026
14.055,32847
14.06,32785
14.065,32688
14.07,32737
14.075,32560
14.08,32580
14.085,32550
14.09,32415
14.095,32389
14.1,32353
14.105,32342
14.11,32217
14.115,32244
14.12,32221
14.125,32168
14.13,32138
14.135,32151
14.14,32089
14.145,32059
14.15,32028
14.155,32047
14.16,31998
14.165,32019
14.17,31988
14.175,32015
14.18,31937
14.185,31961
14.19,31964
14.195,31961
14.2,31981
14.205,31950
14.21,31965
14.215,31999
14.22,31956
14.225,31884
14.23,31868
14.235,31942
14.24,31902
14.245,31924
14.25,31905
14.255,31956
14.26,31951
14.265,31865
14.27,31914
14.275,31891
14.28,31853
14.285,31922
14.29,31892
14.295,31912
14.3,31984
14.305,31941
14.31,31931
14.315,31875
14.32,31846
14.325,31932
14.33,31875
14.335,31886
14.34,31870
14.345,31885
14.35,31967
14.355,31868
14.36,31868
14.365,31884
14.37,31885
14.375,31831
14.38,31809
14.385,31850
14.39,31862
14.395,31840
14.4,31831
14.405,31832
14.41,31851
14.415,31859
14.42,31804
14.425,31841
14.43,31873
14.435,31854
14.44,31809
14.445,31844
14.45,31855
14.455,31882
14.46,31795
14.465,31878
14.47,31836
14.475,31859
14.48,31876
14.485,31821
14.49,31824
14.495,31850
14.5,31882
14.505,31840
14.51,31813
14.515,31845
14.52,31892
14.525,31931
14.53,31885
14.535,31908
14.54,31935
14.545,31963
14.55,31965
14.555,32021
14.56,32057
14.565,32105
14.57,32161
14.575,32192
14.58,32283
14.585,32359
14.59,32512
14.595,32622
14.6,32684
14.605,32833
14.61,32872
14.615,32980
14.62,33049
14.625,33204
14.63,33274
14.635,33379
14.64,33468
14.645,33503
14.65,33518
14.655,33588
14.66,33601
14.665,33923
14.67,33922
14.675,33851
14.68,33795
14.685,33800
14.69,33698
14.695,33570
14.7,33448
14.705,33370
14.71,33302
14.715,33223
14.72,33187
14.725,33006
14.73,32941
14.735,32853
14.74,32809
14.745,32743
14.75,32680
14.755,32727
14.76,32679
14.765,32715
14.77,32656
14.775,32697
14.78,32734
14.785,32674
14.79,32731
14.795,32847
14.8,32870
14.805,32851
14.81,32942
14.815,32983
14.82,33056
14.825,33180
14.83,33154
14.835,33292
14.84,33253
14.845,33273
14.85,33386
14.855,33390
14.86,33424
14.865,33455
14.87,33428
14.875,33431
14.88,33315
14.885,33329
14.89,33348
14.895,33308
14.9,33287
14.905,33200
14.91,33207
14.915,33185
14.92,33076
14.925,33024
14.93,32949
14.935,32899
14.94,32808
14.945,32716
14.95,32676
14.955,32608
14.96,32487
14.965,32490
14.97,32424
14.975,32376
14.98,32297
14.985,32285
14.99,32245
14.995,32155
15.0,32153
15.005,32134
15.01,32101
15.015,32013
15.02,31984
15.025,31998
15.03,31939
15.035,32047
15.04,31913
15.045,31899
15.05,31938
15.055,31887
15.06,31811
15.065,31881
15.07,31844
15.075,31854
15.08,31810
15.085,31830
15.09,31852
15.095,31851
15.1,31811
15.105,31822
15.11,31814
15.115,31847
15.12,31834
15.125,31793
15.13,31858
15.135,31808
15.14,31845
15.145,31797
15.15,31838
15.155,31822
15.16,31826
15.165,31841
15.17,31837
15.175,31826
15.18,31824
15.185,31772
15.19,31813
15.195,31736
15.2,31733
15.205,31800
15.21,31802
15.215,31862
15.22,31831
15.225,31845
15.23,31794
15.235,31819
15.24,31844
15.245,31820
15.25,31813
15.255,31803
15.26,31765
15.265,31765
15.27,31745
15.275,31809
15.28,31784
15.285,31769
15.29,31805
15.295,31772
15.3,31829
15.305,31860
15.31,31809
15.315,31770
15.32,31744
15.325,31872
15.33,31821
15.335,31770
15.34,31858
15.345,31772
15.35,31830
15.355,31855
15.36,31873
15.365,31872
15.37,32030
15.375,31969
15.38,32042
15.385,32082
15.39,32084
15.395,32189
15.4,32292
15.405,32401
15.41,32445
15.415,32567
15.42,32643
15.425,32781
15.43,32778
15.435,32994
15.44,33023
15.445,33124
15.45,33137
15.455,33284
15.46,33417
15.465,33537
15.47,33474
15.475,33504
15.48,33557
15.485,33865
15.49,33808
15.495,33781
15.5,33718
15.505,33685
15.51,33612
15.515,33559
15.52,33436
15.525,33331
15.53,33216
15.535,33149
15.54,32989
15.545,33016
15.55,32871
15.555,32843
15.56,32706
15.565,32723
15.57,32664
15.575,32617
15.58,32585
15.585,32574
15.59,32676
15.595,32671
15.6,32655
15.605,32689
15.61,32694
15.615,32697
15.62,32745
15.625,32838
15.63,32906
15.635,32922
15.64,33046
15.645,33087
15.65,33123
15.655,33099
15.66,33196
15.665,33239
15.67,33226
15.675,33217
15.68,33382
15.685,33346
15.69,33313
15.695,33380
15.7,33350
15.705,33307
15.71,33273
15.715,33260
15.72,33245
15.725,33149
15.73,33088
15.735,33063
15.74,32882
15.745,32925
15.75,32843
15.755,32792
15.76,32720
15.765,32673
15.77,32600
15.775,32534
15.78,32465
15.785,32426
15.79,32334
15.795,32333
15.8,32185
15.805,32205
15.81,32169
15.815,32066
15.82,32058
15.825,32087
15.83,32003
15.835,31948
15.84,31847
15.845,31944
15.85,31915
15.855,31915
15.86,31952
15.865,31864
15.87,31857
15.875,31817
15.88,31830
15.885,31824
15.89,31845
15.895,31832
15.9,31779
15.905,31785
15.91,31847
15.915,31760
15.92,31818
15.925,31847
15.93,31809
15.935,31792
15.94,31830
15.945,31792
15.95,31777
15.955,31768
15.96,31815
15.965,31797
15.97,31826
15.975,31757
15.98,31756
15.985,31750
15.99,31774
15.995,31738
16.0,31795
16.005,31772
16.01,31723
16.015,31651
16.02,31690
16.025,31807
16.03,31751
16.035,31758
16.04,31736
16.045,31764
16.05,31680
16.055,31675
16.06,31687
16.065,31748
16.07,31769
16.075,31760
16.08,31737
16.085,31695
16.09,31769
16.095,31729
16.1,31738
16.105,31735
16.11,31720
16.115,31711
16.12,31716
16.125,31692
16.13,31749
16.135,31736
16.14,31782
16.145,31685
16.15,31799
16.155,31763
16.16,31771
16.165,31762
16.17,31779
16.175,31777
16.18,31890
16.185,31882
16.19,31954
16.195,32003
16.2,32008
16.205,32077
16.21,32141
16.215,32266
16.22,32317
16.225,32408
16.23,32524
16.235,32597
16.24,32778
16.245,32777
16.25,32962
16.255,33072
16.26,33048
16.265,33214
16.27,33277
16.275,33371
16.28,33356
16.285,33453
16.29,33438
16.295,33474
16.3,33853
16.305,33771
16.31,33654
16.315,33629
16.32,33570
16.325,33569
16.33,33420
16.335,33296
16.34,33296
16.345,33168
16.35,33076
16.355,32944
16.36,32939
16.365,32805
16.37,32670
16.375,32641
16.38,32604
16.385,32592
16.39,32599
16.395,32531
16.4,32532
16.405,32639
16.41,32577
16.415,32579
16.42,32631
16.425,32622
16.43,32729
16.435,32792
16.44,32786
16.445,32895
16.45,32902
16.455,32975
16.46,32989
16.465,33036
16.47,33057
16.475,33160
16.48,33179
16.485,33211
16.49,33204
16.495,33220
16.5,33250
16.505,33293
16.51,33283
16.515,33236
16.52,33252
16.525,33278
16.53,33186
16.535,33216
16.54,33113
16.545,33096
16.55,32974
16.555,32977
16.56,32831
16.565,32818
16.57,32732
16.575,32607
16.58,32564
16.585,32588
16.59,32501
16.595,32468
16.6,32369
16.605,32200
16.61,32258
16.615,32178
16.62,32132
16.625,32089
16.63,32036
16.635,31991
16.64,32036
16.645,31976
16.65,31908
16.655,31891
16.66,31919
16.665,31877
16.67,31853
16.675,31786
16.68,31801
16.685,31764
16.69,31725
16.695,31817
16.7,31765
16.705,31755
16.71,31730
16.715,31786
16.72,31830
16.725,31772
16.73,31781
16.735,31699
16.74,31748
16.745,31747
16.75,31790
16.755,31735
16.76,31698
16.765,31728
16.77,31713
16.775,31779
16.78,31749
16.785,31736
16.79,31729
16.795,31751
16.8,31702
16.805,31685
16.81,31649
16.815,31758
16.82,31733
16.825,31736
16.83,31713
16.835,31771
16.84,31674
16.845,31752
16.85,31677
16.855,31690
16.86,31661
16.865,31707
16.87,31692
16.875,31717
16.88,31679
16.885,31649
16.89,31718
16.895,31743
16.9,31722
16.905,31693
16.91,31708
16.915,31632
16.92,31680
16.925,31733
16.93,31707
16.935,31658
16.94,31719
16.945,31682
16.95,31713
16.955,31635
16.96,31666
16.965,31696
16.97,31695
16.975,31703
16.98,31683
16.985,31677
16.99,31701
16.995,31717
17.0,31633
17.005,31679
17.01,31687
17.015,31706
17.02,31744
17.025,31669
17.03,31748
17.035,31682
17.04,31737
17.045,31769
17.05,31807
17.055,31829
17.06,31874
17.065,31928
17.07,31985
17.075,31959
17.08,32046
17.085,32160
17.09,32280
17.095,32390
17.1,32555
17.105,32560
17.11,32634
17.115,32776
17.12,32901
17.125,32985
17.13,33040
17.135,33165
17.14,33248
17.145,33268
17.15,33330
17.155,33456
17.16,33357
17.165,33772
17.17,33742
17.175,33770
17.18,33696
17.185,33583
17.19,33588
17.195,33441
17.2,33443
17.205,33336
17.21,33178
17.215,33112
17.22,32997
17.225,32869
17.23,32856
17.235,32759
17.24,32709
17.245,32662
17.25,32630
17.255,32583
17.26,32521
17.265,32517
17.27,32528
17.275,32519
17.28,32533
17.285,32634
17.29,32619
17.295,32709
17.3,32658
17.305,32733
17.31,32770
17.315,32824
17.32,32880
17.325,32939
17.33,32978
17.335,33106
17.34,33110
17.345,33100
17.35,33142
17.355,33217
17.36,33232
17.365,33206
17.37,33269
17.375,33186
17.38,33214
17.385,33278
17.39,33102
17.395,33159
17.4,33167
17.405,33085
17.41,33016
17.415,32960
17.42,32862
17.425,32829
17.43,32817
17.435,32730
17.44,32685
17.445,32614
17.45,32564
17.455,32430
17.46,32415
17.465,32352
17.47,32294
17.475,32217
17.48,32117
17.485,32168
17.49,32127
17.495,32139
17.5,32041
17.505,32036
17.51,31966
17.515,31901
17.52,31905
17.525,31821
17.53,31850
17.535,31818
17.54,31768
17.545,31834
17.55,31817
17.555,31783
17.56,31786
17.565,31807
17.57,31736
17.575,31686
17.58,31695
17.585,31749
17.59,31728
17.595,31663
17.6,31760
17.605,31717
17.61,31765
17.615,31745
17.62,31687
17.625,31704
17.63,31673
17.635,31667
17.64,31685
17.645,31712
17.65,31742
17.655,31660
17.66,31715
17.665,31690
17.67,31680
17.675,31727
17.68,31673
17.685,31733
17.69,31671
17.695,31649
17.7,31708
17.705,31628
17.71,31636
17.715,31671
17.72,31677
17.725,31666
17.73,31604
17.735,31626
17.74,31691
17.745,31691
17.75,31635
17.755,31679
17.76,31676
17.765,31704
17.77,31641
17.775,31718
17.78,31654
17.785,31716
17.79,31697
17.795,31627
17.8,31651
17.805,31672
17.81,31697
17.815,31611
17.82,31642
17.825,31682
17.83,31676
17.835,31622
17.84,31628
17.845,31676
17.85,31626
17.855,31673
17.86,31701
17.865,31674
17.87,31583
17.875,31730
17.88,31740
17.885,31763
17.89,31761
17.895,31691
17.9,31829
17.905,31822
17.91,31881
17.915,31886
17.92,31934
17.925,31993
17.93,32126
17.935,32153
17.94,32217
17.945,32236
17.95,32394
17.955,32479
17.96,32589
17.965,32726
17.97,32824
17.975,32904
17.98,33013
17.985,33103
17.99,33212
17.995,33286
18.0,33329
18.005,33341
18.01,33434
18.015,33452
18.02,33700
18.025,33730
18.03,33664
18.035,33546
18.04,33557
18.045,33516
18.05,33370
18.055,33279
18.06,33245
18.065,33072
18.07,32983
18.075,32913
18.08,32861
18.085,32782
18.09,32670
18.095,32618
18.1,32582
18.105,32527
18.11,32482
18.115,32458
18.12,32517
18.125,32488
18.13,32612
18.135,32555
18.14,32535
18.145,32599
18.15,32654
18.155,32702
18.16,32754
18.165,32806
18.17,32838
18.175,32919
18.18,33026
18.185,32981
18.19,33030
18.195,33112
18.2,33169
18.205,33185
18.21,33226
18.215,33200
18.22,33205
18.225,33242
18.23,33240
18.235,33266
18.24,33244
18.245,33098
18.25,33159
18.255,33070
18.26,32974
18.265,33015
18.27,32941
18.275,32877
18.28,32782
18.285,32729
18.29,32693
18.295,32581
18.3,32565
18.305,32508
18.31,32435
18.315,32389
18.32,32315
18.325,32218
18.33,32168
18.335,32158
18.34,32139
18.345,32065
18.35,32000
18.355,31985
18.36,31879
18.365,31877
18.37,31870
18.375,31856
18.38,31824
18.385,31805
18.39,31755
18.395,31761
18.4,31777
18.405,31689
18.41,31702
18.415,31723
18.42,31781
18.425,31746
18.43,31772
18.435,31758
18.44,31690
18.445,31699
18.45,31656
18.455,31738
18.46,31719
18.465,31712
18.47,31712
18.475,31703
18.48,31692
18.485,31693
18.49,31725
18.495,31652
18.5,31641
18.505,31678
18.51,31718
18.515,31684
18.52,31667
18.525,31703
18.53,31676
18.535,31602
18.54,31633
18.545,31593
18.55,31660
18.555,31650
18.56,31681
18.565,31740
18.57,31642
18.575,31663
18.58,31648
18.585,31560
18.59,31633
18.595,31633
18.6,31668
18.605,31627
18.61,31610
18.615,31677
18.62,31653
18.625,31622
18.63,31627
18.635,31643
18.64,31683
18.645,31704
18.65,31607
18.655,31696
18.66,31657
18.665,31670
18.67,31695
18.675,31629
18.68,31700
18.685,31629
18.69,31668
18.695,31666
18.7,31772
18.705,31788
18.71,31780
18.715,31798
18.72,31794
18.725,31915
18.73,31949
18.735,31984
18.74,32009
18.745,32069
18.75,32155
18.755,32290
18.76,32299
18.765,32434
18.77,32590
18.775,32669
18.78,32807
18.785,32866
18.79,32971
18.795,33072
18.8,33139
18.805,33212
18.81,33253
18.815,33278
18.82,33428
18.825,33388
18.83,33387
18.835,33759
18.84,33670
18.845,33611
18.85,33582
18.855,33532
18.86,33464
18.865,33386
18.87,33309
18.875,33174
18.88,33095
18.885,32983
18.89,32874
18.895,32827
18.9,32749
18.905,32734
18.91,32632
18.915,32539
18.92,32550
18.925,32495
18.93,32547
18.935,32427
18.94,32471
18.945,32488
18.95,32540
18.955,32563
18.96,32550
18.965,32584
18.97,32704
18.975,32801
18.98,32853
18.985,32840
18.99,32923
18.995,32928
19.0,32956
19.005,33097
19.01,33119
19.015,33119
19.02,33148
19.025,33219
19.03,33215
19.035,33202
19.04,33227
19.045,33212
19.05,33186
19.055,33156
19.06,33188
19.065,33105
19.07,33040
19.075,33101
19.08,33031
19.085,32951
19.09,32871
19.095,32819
19.1,32697
19.105,32683
19.11,32628
19.115,32546
19.12,32504
19.125,32397
19.13,32369
19.135,32248
19.14,32245
19.145,32170
19.15,32094
19.155,32080
19.16,32050
19.165,31988
19.17,32004
19.175,31913
19.18,31940
19.185,31905
19.19,31833
19.195,31883
19.2,31764
19.205,31814
19.21,31782
19.215,31794
19.22,31700
19.225,31703
19.23,31707
19.235,31730
19.24,31725
19.245,31717
19.25,31703
19.255,31683
19.26,31656
19.265,31686
19.27,31717
19.275,31731
19.28,31675
19.285,31729
19.29,31642
19.295,31715
19.3,31648
19.305,31693
19.31,31650
19.315,31648
19.32,31662
19.325,31730
19.33,31655
19.335,31700
19.34,31682
19.345,31686
19.35,31686
19.355,31696
19.36,31630
19.365,31673
19.37,31683
19.375,31649
19.38,31682
19.385,31632
19.39,31693
19.395,31642
19.4,31656
19.405,31693
19.41,31702
19.415,31643
19.42,31640
19.425,31697
19.43,31560
19.435,31708
19.44,31705
19.445,31622
19.45,31701
19.455,31671
19.46,31674
19.465,31576
19.47,31640
19.475,31651
19.48,31644
19.485,31645
19.49,31650
19.495,31561
19.5,31658
19.505,31645
19.51,31671
19.515,31664
19.52,31691
19.525,31713
19.53,31781
19.535,31708
19.54,31820
19.545,31780
19.55,31791
19.555,31811
19.56,31939
19.565,31910
19.57,32057
19.575,32106
19.58,32151
19.585,32232
19.59,32364
19.595,32450
19.6,32573
19.605,32653
19.61,32709
19.615,32854
19.62,32897
19.625,33069
19.63,33133
19.635,33175
19.64,33250
19.645,33332
19.65,33322
19.655,33462
19.66,33781
19.665,33697
19.67,33704
19.675,33724
19.68,33621
19.685,33501
19.69,33381
19.695,33312
19.7,33319
19.705,33192
19.71,33038
19.715,33015
19.72,32887
19.725,32793
19.73,32722
19.735,32657
19.74,32676
19.745,32538
19.75,32522
19.755,32560
19.76,32554
19.765,32464
19.77,32580
19.775,32563
19.78,32497
19.785,32646
19.79,32568
19.795,32689
19.8,32672
19.805,32701
19.81,32847
19.815,32885
19.82,32920
19.825,32981
19.83,33020
19.835,33060
19.84,33072
19.845,33167
19.85,33177
19.855,33192
19.86,33197
19.865,33217
19.87,33176
19.875,33214
19.88,33177
19.885,33238
19.89,33132
19.895,33116
19.9,33093
19.905,33075
19.91,33012
19.915,32942
19.92,32960
19.925,32821
19.93,32769
19.935,32790
19.94,32596
19.945,32597
19.95,32513
19.955,32387
19.96,32350
19.965,32343
19.97,32205
19.975,32197
19.98,32186
19.985,32097
19.99,32071
19.995,31998
20.0,31962
20.005,31929
20.01,31908
20.015,31916
20.02,31871
20.025,31917
20.03,31847
20.035,31820
20.04,31876
20.045,31779
20.05,31743
20.055,31767
20.06,31714
20.065,31764
20.07,31788
20.075,31757
20.08,31715
20.085,31720
20.09,31739
20.095,31761
20.1,31702
20.105,31699
20.11,31751
20.115,31718
20.12,31721
20.125,31724
20.13,31678
20.135,31699
20.14,31741
20.145,31696
20.15,31694
20.155,31711
20.16,31713
20.165,31789
20.17,31668
20.175,31701
20.18,31767
20.185,31696
20.19,31707
20.195,31641
20.2,31727
20.205,31722
20.21,31720
20.215,31683
20.22,31702
20.225,31686
20.23,31718
20.235,31686
20.24,31714
20.245,31638
20.25,31673
20.255,31583
20.26,31679
20.265,31711
20.27,31674
20.275,31767
20.28,31648
20.285,31672
20.29,31651
20.295,31668
20.3,31671
20.305,31637
20.31,31659
20.315,31771
20.32,31696
20.325,31746
20.33,31679
20.335,31735
20.34,31775
20.345,31772
20.35,31786
20.355,31829
20.36,31874
20.365,31947
20.37,32012
20.375,31981
20.38,32021
20.385,32162
20.39,32251
20.395,32366
20.4,32474
20.405,32512
20.41,32714
20.415,32757
20.42,32792
20.425,32995
20.43,33072
20.435,33167
20.44,33154
20.445,33276
20.45,33356
20.455,33393
20.46,33456
20.465,33493
20.47,33823
20.475,33791
20.48,33703
20.485,33718
20.49,33601
20.495,33545
20.5,33421
20.505,33289
20.51,33162
20.515,33154
20.52,33028
20.525,32960
20.53,32906
20.535,32740
20.54,32662
20.545,32674
20.55,32628
20.555,32566
20.56,32530
20.565,32475
20.57,32523
20.575,32504
20.58,32560
20.585,32602
20.59,32578
20.595,32650
20.6,32684
20.605,32749
20.61,32829
20.615,32850
20.62,32905
20.625,32961
20.63,32970
20.635,33035
20.64,33094
20.645,33169
20.65,33209
20.655,33277
20.66,33183
20.665,33241
20.67,33193
20.675,33241
20.68,33199
20.685,33290
20.69,33258
20.695,33169
20.7,33188
20.705,33165
20.71,33157
20.715,33076
20.72,32998
20.725,32933
20.73,32898
20.735,32824
20.74,32731
20.745,32640
20.75,32656
20.755,32527
20.76,32480
20.765,32456
20.77,32365
20.775,32350
20.78,32215
20.785,32231
20.79,32108
20.795,32056
20.8,32031
20.805,32035
20.81,31971
20.815,31915
20.82,31979
20.825,31876
20.83,31884
20.835,31877
20.84,31833
20.845,31847
20.85,31843
20.855,31805
20.86,31836
20.865,31769
20.87,31745
20.875,31783
20.88,31736
20.885,31779
20.89,31758
20.895,31741
20.9,31775
20.905,31771
20.91,31644
20.915,31736
20.92,31751
20.925,31762
20.93,31723
20.935,31700
20.94,31744
20.945,31763
20.95,31664
20.955,31683
20.96,31715
20.965,31642
20.97,31713
20.975,31763
20.98,31694
20.985,31736
20.99,31699
20.995,31745
21.0,31752
21.005,31775
21.01,31730
21.015,31765
21.02,31741
21.025,31709
21.03,31778
21.035,31703
21.04,31730
21.045,31811
21.05,31754
21.055,31693
21.06,31732
21.065,31701
21.07,31716
21.075,31667
21.08,31728
21.085,31665
21.09,31734
21.095,31734
21.1,31752
21.105,31803
21.11,31666
21.115,31685
21.12,31696
21.125,31716
21.13,31775
21.135,31740
21.14,31743
21.145,31737
21.15,31773
21.155,31802
21.16,31841
21.165,31825
21.17,31912
21.175,31980
21.18,32024
21.185,32026
21.19,32167
21.195,32242
21.2,32306
21.205,32341
21.21,32428
21.215,32583
21.22,32650
21.225,32746
21.23,32933
21.235,33039
21.24,33131
21.245,33217
21.25,33289
21.255,33290
21.26,33435
21.265,33446
21.27,33490
21.275,33546
21.28,33824
21.285,33842
21.29,33749
21.295,33681
21.3,33603
21.305,33547
21.31,33406
21.315,33373
21.32,33275
21.325,33164
21.33,33008
21.335,32920
21.34,32937
21.345,32799
21.35,32813
21.355,32678
21.36,32668
21.365,32565
21.37,32567
21.375,32567
21.38,32590
21.385,32635
21.39,32624
21.395,32560
21.4,32643
21.405,32674
21.41,32700
21.415,32792
21.42,32878
21.425,32857
21.43,32967
21.435,33030
21.44,32994
21.445,33146
21.45,33190
21.455,33182
21.46,33271
21.465,33251
21.47,33310
21.475,33311
21.48,33269
21.485,33314
21.49,33297
21.495,33275
21.5,33234
21.505,33222
21.51,33175
21.515,33222
21.52,33067
21.525,33092
21.53,33013
21.535,32933
21.54,32944
21.545,32826
21.55,32834
21.555,32719
21.56,32672
21.565,32591
21.57,32555
21.575,32504
21.58,32394
21.585,32353
21.59,32362
21.595,32226
21.6,32264
21.605,32140
21.61,32093
21.615,32015
21.62,32010
21.625,31947
21.63,31961
21.635,31981
21.64,31932
21.645,31892
21.65,31860
21.655,31857
21.66,31816
21.665,31811
21.67,31916
21.675,31846
21.68,31797
21.685,31848
21.69,31872
21.695,31791
21.7,31806
21.705,31761
21.71,31746
21.715,31850
21.72,31922
21.725,31770
21.73,31736
21.735,31844
21.74,31830
21.745,31807
21.75,31842
21.755,31776
21.76,31797
21.765,31815
21.77,31774
21.775,31802
21.78,31775
21.785,31799
21.79,31788
21.795,31710
21.8,31784
21.805,31728
21.81,31749
21.815,31719
21.82,31807
21.825,31766
21.83,31763
21.835,31821
21.84,31801
21.845,31767
21.85,31700
21.855,31798
21.86,31764
21.865,31760
21.87,31799
21.875,31749
21.88,31769
21.885,31803
21.89,31791
21.895,31748
21.9,31822
21.905,31811
21.91,31837
21.915,31767
21.92,31777
21.925,31807
21.93,31785
21.935,31774
21.94,31765
21.945,31758
21.95,31747
21.955,31748
21.96,31788
21.965,31764
21.97,31728
21.975,31785
21.98,31848
21.985,31845
21.99,31733
21.995,31787
22.0,31861
22.005,31855
22.01,31878
22.015,31899
22.02,31940
22.025,31941
22.03,32067
22.035,32042
22.04,32136
22.045,32265
22.05,32327
22.055,32340
22.06,32432
22.065,32509
22.07,32615
22.075,32731
22.08,32895
22.085,32939
22.09,33080
22.095,33175
22.1,33268
22.105,33327
22.11,33435
22.115,33473
22.12,33514
22.125,33521
22.13,33796
22.135,33889
22.14,33862
22.145,33775
22.15,33730
22.155,33677
22.16,33553
22.165,33526
22.17,33433
22.175,33342
22.18,33249
22.185,33054
22.19,33051
22.195,32933
22.2,32912
22.205,32844
22.21,32778
22.215,32700
22.22,32769
22.225,32643
22.23,32595
22.235,32665
22.24,32587
22.245,32725
22.25,32718
22.255,32762
22.26,32791
22.265,32812
22.27,32799
22.275,32876
22.28,32970
22.285,32996
22.29,33070
22.295,33084
22.3,33130
22.305,33214
22.31,33272
22.315,33282
22.32,33277
22.325,33277
22.33,33426
22.335,33324
22.34,33336
22.345,33337
22.35,33383
22.355,33305
22.36,33325
22.365,33282
22.37,33192
22.375,33193
22.38,33093
22.385,33077
22.39,33051
22.395,32955
22.4,32867
22.405,32820
22.41,32763
22.415,32717
22.42,32559
22.425,32511
22.43,32533
22.435,32453
22.44,32401
22.445,32354
22.45,32290
22.455,32233
22.46,32209
22.465,32189
22.47,32140
22.475,32095
22.48,32027
22.485,32046
22.49,31972
22.495,31967
22.5,31978
22.505,31960
22.51,31980
22.515,31959
22.52,31934
22.525,31896
22.53,31899
22.535,31883
22.54,31948
22.545,31897
22.55,31853
22.555,31843
22.56,31914
22.565,31836
22.57,31877
22.575,31868
22.58,31898
22.585,31828
22.59,31874
22.595,31863
22.6,31883
22.605,31902
22.61,31857
22.615,31844
22.62,31882
22.625,31800
22.63,31856
22.635,31814
22.64,31805
22.645,31791
22.65,31788
22.655,31876
22.66,31877
22.665,31849
22.67,31881
22.675,31845
22.68,31826
22.685,31805
22.69,31870
22.695,31871
22.7,31887
22.705,31813
22.71,31831
22.715,31792
22.72,31881
22.725,31865
22.73,31858
22.735,31838
22.74,31833
22.745,31825
22.75,31877
22.755,31816
22.76,31869
22.765,31848
22.77,31802
22.775,31787
22.78,31811
22.785,31838
22.79,31795
22.795,31864
22.8,31885
22.805,31867
22.81,31792
22.815,31774
22.82,31896
22.825,31928
22.83,31873
22.835,31921
22.84,31912
22.845,31922
22.85,32009
22.855,31988
22.86,32078
22.865,32156
22.87,32144
22.875,32277
22.88,32233
22.885,32389
22.89,32442
22.895,32625
22.9,32632
22.905,32705
22.91,32865
22.915,32860
22.92,33038
22.925,33100
22.93,33277
22.935,33317
22.94,33435
22.945,33475
22.95,33496
22.955,33502
22.96,33671
22.965,33950
22.97,33890
22.975,33893
22.98,33897
22.985,33752
22.99,33817
22.995,33648
23.0,33557
23.005,33523
23.01,33389
23.015,33249
23.02,33224
23.025,33118
23.03,33058
23.035,32909
23.04,32835
23.045,32841
23.05,32757
23.055,32660
23.06,32693
23.065,32724
23.07,32673
23.075,32753
23.08,32706
23.085,32746
23.09,32724
23.095,32793
23.1,32859
23.105,32935
23.11,32972
23.115,33056
23.12,32994
23.125,33126
23.13,33172
23.135,33189
23.14,33271
23.145,33287
23.15,33366
23.155,33369
23.16,33424
23.165,33391
23.17,33480
23.175,33451
23.18,33497
23.185,33416
23.19,33383
23.195,33380
23.2,33325
23.205,33265
23.21,33258
23.215,33205
23.22,33130
23.225,33081
23.23,32999
23.235,32976
23.24,32858
23.245,32902
23.25,32777
23.255,32746
23.26,32606
23.265,32600
23.27,32524
23.275,32508
23.28,32450
23.285,32309
23.29,32363
23.295,32224
23.3,32286
23.305,32199
23.31,32124
23.315,32163
23.32,32111
23.325,32050
23.33,32037
23.335,32062
23.34,31979
23.345,31983
23.35,32068
23.355,31962
23.36,31994
23.365,31988
23.37,32000
23.375,31991
23.38,31863
23.385,31932
23.39,31989
23.395,31914
23.4,32006
23.405,31947
23.41,31891
23.415,31954
23.42,32003
23.425,31907
23.43,31950
23.435,31897
23.44,31906
23.445,31931
23.45,31944
23.455,31938
23.46,31932
23.465,32011
23.47,31884
23.475,31855
23.48,31942
23.485,31928
23.49,31869
23.495,31982
23.5,31894
23.505,31868
23.51,31934
23.515,31941
23.52,32003
23.525,31861
23.53,31871
23.535,31906
23.54,31900
23.545,31913
23.55,31890
23.555,31859
23.56,31900
23.565,31942
23.57,31945
23.575,31894
23.58,31938
23.585,31936
23.59,31906
23.595,31915
23.6,31935
23.605,32041
23.61,31954
23.615,31927
23.62,31968
23.625,31971
23.63,32055
23.635,31961
23.64,32032
23.645,32140
23.65,32169
23.655,32206
23.66,32290
23.665,32283
23.67,32419
23.675,32446
23.68,32530
23.685,32690
23.69,32744
23.695,32865
23.7,33008
23.705,33055
23.71,33221
23.715,33382
23.72,33388
23.725,33517
23.73,33586
23.735,33575
23.74,33620
23.745,33671
23.75,33610
23.755,34010
23.76,33997
23.765,33968
23.77,33915
23.775,33883
23.78,33746
23.785,33723
23.79,33602
23.795,33507
23.8,33386
23.805,33332
23.81,33178
23.815,33146
23.82,33081
23.825,32946
23.83,32876
23.835,32833
23.84,32820
23.845,32808
23.85,32810
23.855,32842
23.86,32836
23.865,32801
23.87,32800
23.875,32800
23.88,32911
23.885,32943
23.89,32961
23.895,33015
23.9,33070
23.905,33033
23.91,33179
23.915,33245
23.92,33279
23.925,33292
23.93,33376
23.935,33430
23.94,33511
23.945,33511
23.95,33514
23.955,33504
23.96,33463
23.965,33493
23.97,33451
23.975,33480
23.98,33499
23.985,33467
23.99,33425
23.995,33350
24.0,33337
24.005,33238
24.01,33119
24.015,33136
24.02,33070
24.025,32941
24.03,32920
24.035,32785
24.04,32792
24.045,32790
24.05,32661
24.055,32672
24.06,32575
24.065,32486
24.07,32396
24.075,32440
24.08,32393
24.085,32273
24.09,32274
24.095,32295
24.1,32196
24.105,32209
24.11,32098
24.115,32114
24.12,32154
24.125,32067
24.13,32042
24.135,32030
24.14,32056
24.145,32002
24.15,32047
24.155,32064
24.16,32093
24.165,32017
24.17,32086
24.175,32044
24.18,32012
24.185,32036
24.19,32070
24.195,32067
24.2,32038
24.205,32006
24.21,32038
24.215,32014
24.22,32011
24.225,32014
24.23,32069
24.235,31959
24.24,31999
24.245,31961
24.25,32032
24.255,32040
24.26,32048
24.265,31985
24.27,32000
24.275,32025
24.28,32003
24.285,32007
24.29,32003
24.295,32005
24.3,31991
24.305,32011
24.31,31941
24.315,31978
24.32,31945
24.325,31990
24.33,31966
24.335,32012
24.34,32038
24.345,31947
24.35,31964
24.355,32005
24.36,32046
24.365,32023
24.37,32012
24.375,31996
24.38,31985
24.385,32020
24.39,32029
24.395,32024
24.4,32006
24.405,31981
24.41,32023
24.415,32058
24.42,32052
24.425,32134
24.43,32103
24.435,32182
24.44,32252
24.445,32321
24.45,32361
24.455,32464
24.46,32474
24.465,32551
24.47,32709
24.475,32734
24.48,32862
24.485,32910
24.49,33121
24.495,33213
24.5,33265
24.505,33330
24.51,33497
24.515,33583
24.52,33689
24.525,33775
24.53,33730
24.535,33745
24.54,33758
24.545,34073
24.55,34011
24.555,33988
24.56,33964
24.565,33841
24.57,33775
24.575,33781
24.58,33621
24.585,33579
24.59,33494
24.595,33360
24.6,33299
24.605,33177
24.61,33075
24.615,33034
24.62,32982
24.625,32936
24.63,32897
24.635,32855
24.64,32893
24.645,32843
24.65,32842
24.655,32906
24.66,32860
24.665,32928
24.67,33019
24.675,33012
24.68,33109
24.685,33099
24.69,33142
24.695,33209
24.7,33248
24.705,33307
24.71,33354
24.715,33446
24.72,33474
24.725,33489
24.73,33502
24.735,33671
24.74,33567
24.745,33637
24.75,33548
24.755,33561
24.76,33622
24.765,33520
24.77,33496
24.775,33501
24.78,33438
24.785,33410
24.79,33377
24.795,33349
24.8,33267
24.805,33211
24.81,33185
24.815,33124
24.82,32995
24.825,32876
24.83,32842
24.835,32854
24.84,32736
24.845,32669
24.85,32621
24.855,32641
24.86,32535
24.865,32471
24.87,32415
24.875,32360
24.88,32464
24.885,32327
24.89,32303
24.895,32258
24.9,32284
24.905,32187
24.91,32134
24.915,32166
24.92,32184
24.925,32240
24.93,32145
24.935,32106
24.94,32121
24.945,32094
24.95,32087
24.955,32114
24.96,32117
24.965,32078
24.97,32139
24.975,32094
24.98,32098
24.985,32073
24.99,32103
24.995,32103
25.0,32111
25.005,32056
25.01,32108
25.015,32063
25.02,32087
25.025,32109
25.03,32136
25.035,32065
25.04,32040
25.045,32085
25.05,32123
25.055,32066
25.06,32166
25.065,32009
25.07,32131
25.075,32119
25.08,32116
25.085,32045
25.09,32124
25.095,32117
25.1,32119
25.105,32065
25.11,32064
25.115,32120
25.12,32085
25.125,32059
25.13,32042
25.135,32081
25.14,32022
25.145,32092
25.15,32076
25.155,32014
25.16,32086
25.165,32113
25.17,32079
25.175,32021
25.18,32047
25.185,32099
25.19,32022
25.195,32055
25.2,32110
25.205,32059
25.21,32048
25.215,32099
25.22,32129
25.225,32086
25.23,32024
25.235,32016
25.24,32068
25.245,32016
25.25,32083
25.255,32125
25.26,32004
25.265,32105
25.27,32136
25.275,32122
25.28,32176
25.285,32205
25.29,32256
25.295,32352
25.3,32308
25.305,32313
25.31,32365
25.315,32422
25.32,32533
25.325,32600
25.33,32692
25.335,32777
25.34,32927
25.345,33013
25.35,33118
25.355,33164
25.36,33284
25.365,33353
25.37,33474
25.375,33591
25.38,33624
25.385,33712
25.39,33863
25.395,33821
25.4,33795
25.405,34132
25.41,34158
25.415,34159
25.42,34078
25.425,34051
25.43,33959
25.435,33825
25.44,33813
25.445,33665
25.45,33654
25.455,33469
25.46,33392
25.465,33290
25.47,33219
25.475,33172
25.48,33086
25.485,33083
25.49,33013
25.495,33024
25.5,32950
25.505,32986
25.51,32984
25.515,32946
25.52,33064
25.525,33055
25.53,33055
25.535,33069
25.54,33119
25.545,33166
25.55,33234
25.555,33236
25.56,33333
25.565,33362
25.57,33495
25.575,33511
25.58,33588
25.585,33654
25.59,33620
25.595,33705
25.6,33667
25.605,33692
25.61,33643
25.615,33681
25.62,33723
25.625,33674
25.63,33621
25.635,33606
25.64,33544
25.645,33505
25.65,33430
25.655,33471
25.66,33415
25.665,33312
25.67,33205
25.675,33182
25.68,33199
25.685,33012
25.69,32977
25.695,32915
25.7,32898
25.705,32763
25.71,32760
25.715,32666
25.72,32630
25.725,32550
25.73,32567
25.735,32488
25.74,32445
25.745,32471
25.75,32412
25.755,32455
25.76,32359
25.765,32324
25.77,32305
25.775,32382
25.78,32311
25.785,32242
25.79,32252
25.795,32211
25.8,32245
25.805,32195
25.81,32186
25.815,32217
25.82,32245
25.825,32223
25.83,32215
25.835,32187
25.84,32095
25.845,32174
25.85,32171
25.855,32196
25.86,32239
25.865,32201
25.87,32109
25.875,32172
25.88,32162
25.885,32196
25.89,32166
25.895,32099
25.9,32134
25.905,32155
25.91,32091
25.915,32161
25.92,32154
25.925,32203
25.93,32159
25.935,32140
25.94,32157
25.945,32162
25.95,32196
25.955,32126
25.96,32078
25.965,32260
25.97,32187
25.975,32160
25.98,32246
25.985,32116
25.99,32129
25.995,32141
26.0,32175
26.005,32140
26.01,32185
26.015,32143
26.02,32203
26.025,32172
26.03,32094
26.035,32153
26.04,32113
26.045,32149
26.05,32154
26.055,32235
26.06,32145
26.065,32094
26.07,32157
26.075,32110
26.08,32219
26.085,32178
26.09,32210
26.095,32138
26.1,32114
26.105,32163
26.11,32103
26.115,32119
26.12,32127
26.125,32151
26.13,32103
26.135,32086
26.14,32217
26.145,32150
26.15,32169
26.155,32206
26.16,32211
26.165,32184
26.17,32208
26.175,32303
26.18,32315
26.185,32295
26.19,32364
26.195,32277
26.2,32400
26.205,32442
26.21,32446
26.215,32601
26.22,32692
26.225,32765
26.23,32783
26.235,32941
26.24,33061
26.245,33151
26.25,33278
26.255,33394
26.26,33532
26.265,33587
26.27,33766
26.275,33758
26.28,33829
26.285,33902
26.29,33911
26.295,33925
26.3,34312
26.305,34173
26.31,34155
26.315,34250
26.32,34141
26.325,34062
26.33,33972
26.335,33882
26.34,33743
26.345,33672
26.35,33549
26.355,33536
26.36,33428
26.365,33332
26.37,33264
26.375,33181
26.38,33090
26.385,33152
26.39,33081
26.395,33030
26.4,33049
26.405,33075
26.41,33082
26.415,33082
26.42,33116
26.425,33112
26.43,33210
26.435,33241
26.44,33290
26.445,33259
26.45,33384
26.455,33439
26.46,33496
26.465,33423
26.47,33498
26.475,33622
26.48,33617
26.485,33701
26.49,33713
26.495,33770
26.5,33734
26.505,33724
26.51,33783
26.515,33747
26.52,33700
26.525,33649
26.53,33810
26.535,33646
26.54,33610
26.545,33500
26.55,33483
26.555,33459
26.56,33418
26.565,33373
26.57,33253
26.575,33234
26.58,33194
26.585,33067
26.59,33019
26.595,32893
26.6,32868
26.605,32789
26.61,32809
26.615,32725
26.62,32741
26.625,32643
26.63,32623
26.635,32574
26.64,32526
26.645,32446
26.65,32518
26.655,32427
26.66,32339
26.665,32364
26.67,32327
26.675,32395
26.68,32376
26.685,32382
26.69,32395
26.695,32281
26.7,32227
26.705,32256
26.71,32300
26.715,32179
26.72,32253
26.725,32303
26.73,32237
26.735,32262
26.74,32230
26.745,32327
26.75,32333
26.755,32221
26.76,32226
26.765,32261
26.77,32281
26.775,32271
26.78,32279
26.785,32291
26.79,32298
26.795,32323
26.8,32260
26.805,32235
26.81,32249
26.815,32335
26.82,32283
26.825,32278
26.83,32301
26.835,32296
26.84,32338
26.845,32219
26.85,32256
26.855,32276
26.86,32278
26.865,32233
26.87,32186
26.875,32236
26.88,32220
26.885,32241
26.89,32286
26.895,32271
26.9,32201
26.905,32215
26.91,32250
26.915,32285
26.92,32240
26.925,32250
26.93,32185
26.935,32224
26.94,32212
26.945,32250
26.95,32232
26.955,32210
26.96,32204
26.965,32254
26.97,32225
26.975,32295
26.98,32264
26.985,32255
26.99,32307
26.995,32240
27.0,32333
27.005,32289
27.01,32365
27.015,32339
27.02,32360
27.025,32364
27.03,32479
27.035,32547
27.04,32535
27.045,32720
27.05,32728
27.055,32768
27.06,32972
27.065,32980
27.07,33150
27.075,33095
27.08,33356
27.085,33390
27.09,33489
27.095,33604
27.1,33645
27.105,33810
27.11,33868
27.115,33928
27.12,33944
27.125,33955
27.13,34030
27.135,34368
27.14,34322
27.145,34272
27.15,34209
27.155,34190
27.16,34142
27.165,33998
27.17,33881
27.175,33909
27.18,33663
27.185,33636
27.19,33531
27.195,33497
27.2,33364
27.205,33237
27.21,33196
27.215,33193
27.22,33149
27.225,33097
27.23,33084
27.235,33041
27.24,33049
27.245,33094
27.25,33114
27.255,33165
27.26,33163
27.265,33308
27.27,33231
27.275,33379
27.28,33420
27.285,33512
27.29,33558
27.295,33510
27.3,33622
27.305,33685
27.31,33735
27.315,33758
27.32,33751
27.325,33847
27.33,33815
27.335,33814
27.34,33845
27.345,33820
27.35,33803
27.355,33815
27.36,33885
27.365,33768
27.37,33722
27.375,33660
27.38,33641
27.385,33531
27.39,33536
27.395,33468
27.4,33399
27.405,33349
27.41,33260
27.415,33226
27.42,33157
27.425,33094
27.43,33011
27.435,32984
27.44,32887
27.445,32887
27.45,32784
27.455,32787
27.46,32704
27.465,32652
27.47,32578
27.475,32604
27.48,32562
27.485,32522
27.49,32510
27.495,32477
27.5,32419
27.505,32391
27.51,32443
27.515,32413
27.52,32450
27.525,32458
27.53,32406
27.535,32392
27.54,32382
27.545,32360
27.55,32328
27.555,32250
27.56,32372
27.565,32363
27.57,32340
27.575,32341
27.58,32370
27.585,32366
27.59,32338
27.595,32320
27.6,32351
27.605,32357
27.61,32408
27.615,32292
27.62,32343
27.625,32291
27.63,32306
27.635,32409
27.64,32306
27.645,32316
27.65,32299
27.655,32351
27.66,32303
27.665,32256
27.67,32323
27.675,32347
27.68,32315
27.685,32321
27.69,32289
27.695,32280
27.7,32314
27.705,32272
27.71,32297
27.715,32276
27.72,32304
27.725,32341
27.73,32310
27.735,32354
27.74,32325
27.745,32307
27.75,32279
27.755,32318
27.76,32273
27.765,32346
27.77,32272
27.775,32274
27.78,32300
27.785,32278
27.79,32354
27.795,32334
27.8,32362
27.805,32422
27.81,32342
27.815,32445
27.82,32502
27.825,32569
27.83,32585
27.835,32611
27.84,32734
27.845,32806
27.85,32933
27.855,33017
27.86,33023
27.865,33180
27.87,33241
27.875,33302
27.88,33473
27.885,33602
27.89,33570
27.895,33804
27.9,33814
27.905,33984
27.91,33969
27.915,34020
27.92,34106
27.925,34065
27.93,34483
27.935,34354
27.94,34336
27.945,34272
27.95,34271
27.955,34176
27.96,34127
27.965,34048
27.97,33943
27.975,33858
27.98,33762
27.985,33626
27.99,33513
27.995,33422
28.0,33413
28.005,33301
28.01,33232
28.015,33193
28.02,33185
28.025,33181
28.03,33153
28.035,33126
28.04,33194
28.045,33111
28.05,33209
28.055,33294
28.06,33306
28.065,33385
28.07,33394
28.075,33463
28.08,33497
28.085,33533
28.09,33615
28.095,33688
28.1,33628
28.105,33715
28.11,33708
28.115,33785
28.12,33801
28.125,33853
28.13,33875
28.135,33930
28.14,33941
28.145,33859
28.15,33856
28.155,33876
28.16,33801
28.165,33774
28.17,33680
28.175,33728
28.18,33659
28.185,33559
28.19,33486
28.195,33434
28.2,33426
28.205,33327
28.21,33234
28.215,33202
28.22,33182
28.225,33134
28.23,33076
28.235,32974
28.24,32923
28.245,32872
28.25,32836
28.255,32787
28.26,32687
28.265,32657
28.27,32633
28.275,32641
28.28,32567
28.285,32531
28.29,32573
28.295,32568
28.3,32463
28.305,32475
28.31,32508
28.315,32439
28.32,32477
28.325,32382
28.33,32418
28.335,32443
28.34,32469
28.345,32443
28.35,32344
28.355,32343
28.36,32365
28.365,32424
28.37,32418
28.375,32429
28.38,32413
28.385,32365
28.39,32370
28.395,32350
28.4,32412
28.405,32334
28.41,32382
28.415,32388
28.42,32423
28.425,32349
28.43,32391
28.435,32338
28.44,32412
28.445,32360
28.45,32362
28.455,32337
28.46,32349
28.465,32347
28.47,32348
28.475,32412
28.48,32333
28.485,32377
28.49,32398
28.495,32326
28.5,32288
28.505,32383
28.51,32305
28.515,32336
28.52,32361
28.525,32374
28.53,32354
28.535,32337
28.54,32399
28.545,32370
28.55,32432
28.555,32328
28.56,32358
28.565,32359
28.57,32380
28.575,32369
28.58,32361
28.585,32432
28.59,32355
28.595,32378
28.6,32370
28.605,32343
28.61,32395
28.615,32304
28.62,32418
28.625,32326
28.63,32380
28.635,32406
28.64,32398
28.645,32414
28.65,32498
28.655,32567
28.66,32549
28.665,32554
28.67,32568
28.675,32613
28.68,32743
28.685,32797
28.69,32886
28.695,32956
28.7,33055
28.705,33080
28.71,33141
28.715,33237
28.72,33381
28.725,33483
28.73,33600
28.735,33655
28.74,33802
28.745,33913
28.75,33965
28.755,33929
28.76,34078
28.765,34101
28.77,34167
28.775,34451
28.78,34461
28.785,34389
28.79,34365
28.795,34325
28.8,34205
28.805,34143
28.81,34047
28.815,33969
28.82,33846
28.825,33772
28.83,33596
28.835,33567
28.84,33525
28.845,33448
28.85,33327
28.855,33281
28.86,33284
28.865,33254
28.87,33239
28.875,33217
28.88,33222
28.885,33268
28.89,33218
28.895,33231
28.9,33354
28.905,33331
28.91,33430
28.915,33430
28.92,33467
28.925,33616
28.93,33611
28.935,33615
28.94,33708
28.945,33757
28.95,33800
28.955,33852
28.96,33838
28.965,33897
28.97,33944
28.975,33964
28.98,33952
28.985,33919
28.99,33868
28.995,33976
29.0,33860
29.005,33854
29.01,33834
29.015,33808
29.02,33743
29.025,33662
29.03,33633
29.035,33649
29.04,33603
29.045,33440
29.05,33407
29.055,33255
29.06,33261
29.065,33215
29.07,33116
29.075,33132
29.08,33040
29.085,32975
29.09,32807
29.095,32830
29.1,32833
29.105,32747
29.11,32663
29.115,32670
29.12,32714
29.125,32655
29.13,32636
29.135,32588
29.14,32619
29.145,32442
29.15,32484
29.155,32582
29.16,32539
29.165,32499
29.17,32469
29.175,32408
29.18,32452
29.185,32456
29.19,32423
29.195,32502
29.2,32486
29.205,32435
29.21,32475
29.215,32439
29.22,32448
29.225,32419
29.23,32524
29.235,32379
29.24,32426
29.245,32468
29.25,32466
29.255,32369
29.26,32393
29.265,32423
29.27,32396
29.275,32400
29.28,32414
29.285,32417
29.29,32461
29.295,32359
29.3,32458
29.305,32411
29.31,32440
29.315,32405
29.32,32502
29.325,32351
29.33,32459
29.335,32399
29.34,32406
29.345,32465
29.35,32406
29.355,32445
29.36,32465
29.365,32390
29.37,32484
29.375,32456
29.38,32402
29.385,32417
29.39,32383
29.395,32419
29.4,32439
29.405,32444
29.41,32415
29.415,32388
29.42,32383
29.425,32371
29.43,32395
29.435,32426
29.44,32383
29.445,32379
29.45,32365
29.455,32424
29.46,32394
29.465,32344
29.47,32443
29.475,32442
29.48,32405
29.485,32393
29.49,32406
29.495,32376
29.5,32448
29.505,32467
29.51,32459
29.515,32438
29.52,32448
29.525,32471
29.53,32529
29.535,32457
29.54,32509
29.545,32513
29.55,32496
29.555,32592
29.56,32669
29.565,32645
29.57,32781
29.575,32840
29.58,32910
29.585,33028
29.59,33047
29.595,33227
29.6,33259
29.605,33398
29.61,33430
29.615,33628
29.62,33699
29.625,33777
29.63,33853
29.635,33980
29.64,34092
29.645,34121
29.65,34132
29.655,34143
29.66,34467
29.665,34481
29.67,34407
29.675,34408
29.68,34403
29.685,34292
29.69,34208
29.695,34104
29.7,34059
29.705,33960
29.71,33892
29.715,33721
29.72,33617
29.725,33551
29.73,33453
29.735,33429
29.74,33359
29.745,33298
29.75,33293
29.755,33307
29.76,33285
29.765,33234
29.77,33267
29.775,33294
29.78,33332
29.785,33329
29.79,33334
29.795,33437
29.8,33437
29.805,33510
29.81,33567
29.815,33663
29.82,33666
29.825,33740
29.83,33775
29.835,33808
29.84,33901
29.845,33889
29.85,33953
29.855,33970
29.86,33910
29.865,33927
29.87,33875
29.875,33994
29.88,33981
29.885,33932
29.89,33905
29.895,33879
29.9,33828
29.905,33804
29.91,33753
29.915,33667
29.92,33692
29.925,33616
29.93,33501
29.935,33529
29.94,33474
29.945,33365
29.95,33299
29.955,33172
29.96,33120
29.965,33015
29.97,33001
29.975,32997
29.98,32897
29.985,32804
29.99,32879
29.995,32851
30.0,32798
30.005,32655
30.01,32710
30.015,32623
30.02,32623
30.025,32632
30.03,32642
30.035,32548
30.04,32543
30.045,32497
30.05,32531
30.055,32486
30.06,32495
30.065,32533
30.07,32499
30.075,32498
30.08,32499
30.085,32514
30.09,32532
30.095,32437
30.1,32418
30.105,32492
30.11,32497
30.115,32520
30.12,32496
30.125,32529
30.13,32484
30.135,32441
30.14,32499
30.145,32429
30.15,32436
30.155,32474
30.16,32449
30.165,32491
30.17,32443
30.175,32521
30.18,32417
30.185,32479
30.19,32436
30.195,32503
30.2,32430
30.205,32478
30.21,32335
30.215,32422
30.22,32508
30.225,32454
30.23,32449
30.235,32478
30.24,32532
30.245,32405
30.25,32441
30.255,32426
30.26,32468
30.265,32416
30.27,32384
30.275,32385
30.28,32464
30.285,32447
30.29,32470
30.295,32380
30.3,32405
30.305,32417
30.31,32467
30.315,32452
30.32,32430
30.325,32399
30.33,32443
30.335,32419
30.34,32469
30.345,32501
30.35,32444
30.355,32401
30.36,32531
30.365,32472
30.37,32475
30.375,32467
30.38,32480
30.385,32490
30.39,32512
30.395,32468
30.4,32521
30.405,32574
30.41,32618
30.415,32661
30.42,32719
30.425,32693
30.43,32788
30.435,32871
30.44,32947
30.445,33022
30.45,33194
30.455,33208
30.46,33317
30.465,33377
30.47,33607
30.475,33650
30.48,33747
30.485,33825
30.49,33942
30.495,34006
30.5,34130
30.505,34111
30.51,34163
30.515,34182
30.52,34550
30.525,34525
30.53,34516
30.535,34453
30.54,34393
30.545,34301
30.55,34250
30.555,34145
30.56,34045
30.565,33879
30.57,33824
30.575,33722
30.58,33593
30.585,33624
30.59,33556
30.595,33479
30.6,33407
30.605,33397
30.61,33251
30.615,33337
30.62,33208
30.625,33288
30.63,33297
30.635,33331
30.64,33363
30.645,33400
30.65,33389
30.655,33435
30.66,33479
30.665,33565
30.67,33601
30.675,33609
30.68,33754
30.685,33728
30.69,33800
30.695,33835
30.7,33875
30.705,33957
30.71,33940
30.715,33935
30.72,33978
30.725,33972
30.73,33954
30.735,34036
30.74,34030
30.745,33914
30.75,33994
30.755,33968
30.76,33810
30.765,33828
30.77,33751
30.775,33735
30.78,33539
30.785,33606
30.79,33506
30.795,33471
30.8,33421
30.805,33238
30.81,33257
30.815,33196
30.82,33157
30.825,33117
30.83,33048
30.835,32940
30.84,32944
30.845,32844
30.85,32856
30.855,32783
30.86,32747
30.865,32725
30.87,32633
30.875,32652
30.88,32597
30.885,32652
30.89,32646
30.895,32532
30.9,32488
30.905,32565
30.91,32525
30.915,32503
30.92,32611
30.925,32506
30.93,32478
30.935,32499
30.94,32515
30.945,32558
30.95,32508
30.955,32449
30.96,32474
30.965,32556
30.97,32424
30.975,32483
30.98,32526
30.985,32492
30.99,32473
30.995,32447
31.0,32483
31.005,32495
31.01,32483
31.015,32511
31.02,32480
31.025,32518
31.03,32476
31.035,32503
31.04,32457
31.045,32531
31.05,32512
31.055,32491
31.06,32429
31.065,32471
31.07,32357
31.075,32449
31.08,32467
31.085,32429
31.09,32465
31.095,32483
31.1,32523
31.105,32458
31.11,32400
31.115,32371
31.12,32449
31.125,32487
31.13,32494
31.135,32456
31.14,32428
31.145,32426
31.15,32446
31.155,32453
31.16,32471
31.165,32454
31.17,32522
31.175,32455
31.18,32467
31.185,32488
31.19,32485
31.195,32429
31.2,32397
31.205,32412
31.21,32477
31.215,32491
31.22,32491
31.225,32518
31.23,32550
31.235,32492
31.24,32634
31.245,32663
31.25,32626
31.255,32630
31.26,32689
31.265,32680
31.27,32790
31.275,32826
31.28,32926
31.285,32999
31.29,33174
31.295,33163
31.3,33274
31.305,33353
31.31,33532
31.315,33621
31.32,33633
31.325,33755
31.33,33896
31.335,33950
31.34,34065
31.345,34115
31.35,34123
31.355,34184
31.36,34229
31.365,34530
31.37,34517
31.375,34488
31.38,34418
31.385,34406
31.39,34236
31.395,34213
31.4,34086
31.405,34024
31.41,33944
31.415,33841
31.42,33750
31.425,33666
31.43,33579
31.435,33480
31.44,33454
31.445,33412
31.45,33369
31.455,33320
31.46,33303
31.465,33214
31.47,33260
31.475,33296
31.48,33361
31.485,33398
31.49,33396
31.495,33392
31.5,33497
31.505,33565
31.51,33609
31.515,33609
31.52,33648
31.525,33706
31.53,33750
31.535,33872
31.54,33890
31.545,33995
31.55,34009
31.555,34012
31.56,33971
31.565,34032
31.57,34030
31.575,33961
31.58,33956
31.585,33958
31.59,34006
31.595,33915
31.6,33842
31.605,33852
31.61,33821
31.615,33702
31.62,33758
31.625,33601
31.63,33604
31.635,33526
31.64,33409
31.645,33366
31.65,33305
31.655,33228
31.66,33205
31.665,33120
31.67,32997
31.675,33008
31.68,32911
31.685,32895
31.69,32867
31.695,32812
31.7,32814
31.705,32740
31.71,32692
31.715,32741
31.72,32682
31.725,32628
31.73,32612
31.735,32579
31.74,32581
31.745,32529
31.75,32616
31.755,32586
31.76,32451
31.765,32489
31.77,32516
31.775,32488
31.78,32429
31.785,32527
31.79,32454
31.795,32519
31.8,32508
31.805,32544
31.81,32454
31.815,32550
31.82,32437
31.825,32534
31.83,32517
31.835,32493
31.84,32436
31.845,32532
31.85,32502
31.855,32411
31.86,32376
31.865,32445
31.87,32436
31.875,32492
31.88,32470
31.885,32476
31.89,32444
31.895,32496
31.9,32440
31.905,32405
31.91,32372
31.915,32477
31.92,32435
31.925,32393
31.93,32423
31.935,32440
31.94,32478
31.945,32375
31.95,32436
31.955,32477
31.96,32467
31.965,32478
31.97,32520
31.975,32416
31.98,32424
31.985,32485
31.99,32504
31.995,32457
32.0,32432
32.005,32401
32.01,32465
32.015,32455
32.02,32404
32.025,32424
32.03,32408
32.035,32466
32.04,32441
32.045,32494
32.05,32502
32.055,32470
32.06,32509
32.065,32513
32.07,32541
32.075,32484
32.08,32543
32.085,32610
32.09,32594
32.095,32589
32.1,32652
32.105,32773
32.11,32729
32.115,32781
32.12,32905
32.125,32935
32.13,32976
32.135,33066
32.14,33189
32.145,33268
32.15,33450
32.155,33482
32.16,33560
32.165,33687
32.17,33770
32.175,33951
32.18,33963
32.185,34119
32.19,34143
32.195,34240
32.2,34190
32.205,34560
32.21,34442
32.215,34474
32.22,34422
32.225,34434
32.23,34318
32.235,34268
32.24,34130
32.245,34016
32.25,33964
32.255,33918
32.26,33774
32.265,33742
32.27,33589
32.275,33511
32.28,33443
32.285,33389
32.29,33327
32.295,33307
32.3,33262
32.305,33240
32.31,33331
32.315,33314
32.32,33288
32.325,33301
32.33,33298
32.335,33415
32.34,33412
32.345,33555
32.35,33472
32.355,33600
32.36,33685
32.365,33674
32.37,33819
32.375,33830
32.38,33875
32.385,33849
32.39,33954
32.395,33984
32.4,33976
32.405,34054
32.41,34011
32.415,33919
32.42,34009
32.425,34049
32.43,33943
32.435,33966
32.44,33881
32.445,33865
32.45,33720
32.455,33703
32.46,33703
32.465,33634
32.47,33525
32.475,33556
32.48,33478
32.485,33367
32.49,33258
32.495,33289
32.5,33186
32.505,33169
32.51,33124
32.515,33013
32.52,32963
32.525,32948
32.53,32862
32.535,32755
32.54,32808
32.545,32760
32.55,32693
32.555,32702
32.56,32641
32.565,32615
32.57,32637
32.575,32537
32.58,32511
32.585,32549
32.59,32493
32.595,32561
32.6,32492
32.605,32446
32.61,32487
32.615,32414
32.62,32540
32.625,32484
32.63,32505
32.635,32495
32.64,32480
32.645,32432
32.65,32496
32.655,32453
32.66,32435
32.665,32386
32.67,32506
32.675,32448
32.68,32440
32.685,32384
32.69,32487
32.695,32447
32.7,32486
32.705,32447
32.71,32416
32.715,32466
32.72,32387
32.725,32386
32.73,32439
32.735,32468
32.74,32480
32.745,32435
32.75,32433
32.755,32443
32.76,32427
32.765,32415
32.77,32451
32.775,32413
32.78,32423
32.785,32473
32.79,32436
32.795,32408
32.8,32452
32.805,32420
32.81,32449
32.815,32392
32.82,32394
32.825,32369
32.83,32462
32.835,32471
32.84,32462
32.845,32431
32.85,32425
32.855,32409
32.86,32438
32.865,32410
32.87,32380
32.875,32454
32.88,32452
32.885,32441
32.89,32423
32.895,32416
32.9,32439
32.905,32452
32.91,32413
32.915,32452
32.92,32447
32.925,32547
32.93,32484
32.935,32520
32.94,32570
32.945,32651
32.95,32663
32.955,32819
32.96,32848
32.965,32808
32.97,32985
32.975,33078
32.98,33115
32.985,33225
32.99,33336
32.995,33417
33.0,33544
33.005,33665
33.01,33736
33.015,33847
33.02,33893
33.025,34034
33.03,34051
33.035,34166
33.04,34229
33.045,34231
33.05,34474
33.055,34484
33.06,34421
33.065,34394
33.07,34282
33.075,34198
33.08,34147
33.085,34028
33.09,34006
33.095,33891
33.1,33782
33.105,33672
33.11,33585
33.115,33547
33.12,33444
33.125,33381
33.13,33398
33.135,33296
33.14,33254
33.145,33238
33.15,33286
33.155,33226
33.16,33241
33.165,33320
33.17,33352
33.175,33397
33.18,33357
33.185,33450
33.19,33464
33.195,33551
33.2,33532
33.205,33635
33.21,33733
33.215,33750
33.22,33702
33.225,33868
33.23,33883
33.235,33892
33.24,33928
33.245,33935
33.25,34001
33.255,33963
33.26,33904
33.265,33921
33.27,33993
33.275,33950
33.28,33907
33.285,33811
33.29,33815
33.295,33784
33.3,33696
33.305,33662
33.31,33616
33.315,33549
33.32,33463
33.325,33398
33.33,33270
33.335,33239
33.34,33216
33.345,33185
33.35,33069
33.355,33044
33.36,32950
33.365,32862
33.37,32864
33.375,32820
33.38,32729
33.385,32691
33.39,32689
33.395,32637
33.4,32644
33.405,32551
33.41,32607
33.415,32534
33.42,32551
33.425,32466
33.43,32542
33.435,32503
33.44,32562
33.445,32416
33.45,32402
33.455,32487
33.46,32487
33.465,32385
33.47,32464
33.475,32474
33.48,32488
33.485,32439
33.49,32375
33.495,32358
33.5,32502
33.505,32439
33.51,32457
33.515,32408
33.52,32410
33.525,32409
33.53,32381
33.535,32403
33.54,32372
33.545,32395
33.55,32449
33.555,32408
33.56,32382
33.565,32467
33.57,32451
33.575,32404
33.58,32338
33.585,32447
33.59,32446
33.595,32376
33.6,32448
33.605,32365
33.61,32384
33.615,32376
33.62,32398
33.625,32385
33.63,32441
33.635,32375
33.64,32403
33.645,32387
33.65,32393
33.655,32354
33.66,32381
33.665,32432
33.67,32410
33.675,32337
33.68,32364
33.685,32341
33.69,32350
33.695,32352
33.7,32331
33.705,32391
33.71,32407
33.715,32379
33.72,32357
33.725,32380
33.73,32348
33.735,32415
33.74,32464
33.745,32286
33.75,32402
33.755,32396
33.76,32411
33.765,32405
33.77,32375
33.775,32445
33.78,32456
33.785,32493
33.79,32529
33.795,32552
33.8,32699
33.805,32624
33.81,32716
33.815,32753
33.82,32869
33.825,32982
33.83,33016
33.835,33085
33.84,33169
33.845,33342
33.85,33404
33.855,33559
33.86,33616
33.865,33721
33.87,33831
33.875,33857
33.88,34031
33.885,34005
33.89,34095
33.895,34133
33.9,34537
33.905,34458
33.91,34444
33.915,34353
33.92,34309
33.925,34244
33.93,34203
33.935,34041
33.94,33998
33.945,33991
33.95,33756
33.955,33629
33.96,33586
33.965,33516
33.97,33504
33.975,33393
33.98,33359
33.985,33246
33.99,33234
33.995,33221
34.0,33167
34.005,33205
34.01,33191
34.015,33226
34.02,33191
34.025,33200
34.03,33361
34.035,33357
34.04,33400
34.045,33547
34.05,33542
34.055,33575
34.06,33587
34.065,33676
34.07,33720
34.075,33747
34.08,33849
34.085,33861
34.09,33884
34.095,33858
34.1,33880
34.105,33955
34.11,33926
34.115,33893
34.12,33912
34.125,33881
34.13,33838
34.135,33813
34.14,33807
34.145,33746
34.15,33652
34.155,33602
34.16,33580
34.165,33470
34.17,33449
34.175,33374
34.18,33266
34.185,33160
34.19,33151
34.195,33117
34.2,33055
34.205,33041
34.21,32938
34.215,32881
34.22,32846
34.225,32769
34.23,32802
34.235,32678
34.24,32630
34.245,32608
34.25,32639
34.255,32547
34.26,32515
34.265,32541
34.27,32542
34.275,32467
34.28,32492
34.285,32429
34.29,32491
34.295,32392
34.3,32412
34.305,32398
34.31,32373
34.315,32398
34.32,32419
34.325,32361
34.33,32455
34.335,32392
34.34,32392
34.345,32349
34.35,32372
34.355,32404
34.36,32333
34.365,32343
34.37,32336
34.375,32317
34.38,32385
34.385,32331
34.39,32418
34.395,32312
34.4,32343
34.405,32355
34.41,32317
34.415,32274
34.42,32326
34.425,32347
34.43,32312
34.435,32355
34.44,32277
34.445,32353
34.45,32417
34.455,32375
34.46,32375
34.465,32325
34.47,32321
34.475,32375
34.48,32322
34.485,32356
34.49,32296
34.495,32344
34.5,32335
34.505,32248
34.51,32322
34.515,32346
34.52,32344
34.525,32336
34.53,32368
34.535,32319
34.54,32292
34.545,32352
34.55,32394
34.555,32305
34.56,32371
34.565,32309
34.57,32261
34.575,32282
34.58,32283
34.585,32355
34.59,32318
34.595,32295
34.6,32321
34.605,32369
34.61,32319
34.615,32300
34.62,32345
34.625,32311
34.63,32370
34.635,32401
34.64,32390
34.645,32389
34.65,32435
34.655,32412
34.66,32557
34.665,32630
34.67,32597
34.675,32581
34.68,32666
34.685,32714
34.69,32781
34.695,32933
34.7,33028
34.705,33113
34.71,33280
34.715,33348
34.72,33419
34.725,33574
34.73,33614
34.735,33741
34.74,33809
34.745,33924
34.75,33965
34.755,34000
34.76,34061
34.765,34083
34.77,34392
34.775,34399
34.78,34281
34.785,34279
34.79,34258
34.795,34120
34.8,33954
34.805,33976
34.81,33838
34.815,33771
34.82,33663
34.825,33583
34.83,33519
34.835,33401
34.84,33355
34.845,33219
34.85,33185
34.855,33175
34.86,33209
34.865,33106
34.87,33118
34.875,33160
34.88,33131
34.885,33126
34.89,33132
34.895,33268
34.9,33242
34.905,33341
34.91,33397
34.915,33394
34.92,33499
34.925,33459
34.93,33583
34.935,33599
34.94,33690
34.945,33731
34.95,33767
34.955,33815
34.96,33794
34.965,33784
34.97,33802
34.975,33887
34.98,33810
34.985,33824
34.99,33831
34.995,33787
35.0,33724
35.005,33645
35.01,33711
35.015,33606
35.02,33514
35.025,33491
35.03,33455
35.035,33318
35.04,33329
35.045,33259
35.05,33209
35.055,33127
35.06,33027
35.065,32941
35.07,32932
35.075,32863
35.08,32882
35.085,32764
35.09,32741
35.095,32683
35.1,32576
35.105,32628
35.11,32549
35.115,32481
35.12,32519
35.125,32523
35.13,32451
35.135,32425
35.14,32394
35.145,32386
35.15,32427
35.155,32378
35.16,32379
35.165,32375
35.17,32241
35.175,32345
35.18,32354
35.185,32336
35.19,32269
35.195,32290
35.2,32339
35.205,32327
35.21,32325
35.215,32265
35.22,32313
35.225,32353
35.23,32300
35.235,32345
35.24,32326
35.245,32323
35.25,32267
35.255,32266
35.26,32264
35.265,32328
35.27,32330
35.275,32246
35.28,32236
35.285,32285
35.29,32326
35.295,32287
35.3,32299
35.305,32292
35.31,32294
35.315,32267
35.32,32288
35.325,32294
35.33,32264
35.335,32327
35.34,32227
35.345,32250
35.35,32232
35.355,32299
35.36,32299
35.365,32232
35.37,32260
35.375,32240
35.38,32206
35.385,32225
35.39,32265
35.395,32272
35.4,32225
35.405,32251
35.41,32280
35.415,32300
35.42,32263
35.425,32223
35.43,32197
35.435,32259
35.44,32249
35.445,32244
35.45,32248
35.455,32262
35.46,32299
35.465,32334
35.47,32300
35.475,32419
35.48,32432
35.485,32407
35.49,32468
35.495,32559
35.5,32528
35.505,32601
35.51,32672
35.515,32736
35.52,32884
35.525,32943
35.53,33052
35.535,33154
35.54,33250
35.545,33385
35.55,33432
35.555,33510
35.56,33589
35.565,33704
35.57,33815
35.575,33882
35.58,33940
35.585,33954
35.59,34007
35.595,34335
35.6,34260
35.605,34285
35.61,34239
35.615,34153
35.62,34129
35.625,34010
35.63,33891
35.635,33857
35.64,33790
35.645,33589
35.65,33533
35.655,33478
35.66,33386
35.665,33326
35.67,33271
35.675,33106
35.68,33151
35.685,33036
35.69,33038
35.695,33023
35.7,33078
35.705,33012
35.71,33093
35.715,33062
35.72,33221
35.725,33171
35.73,33233
35.735,33240
35.74,33313
35.745,33432
35.75,33447
35.755,33449
35.76,33523
35.765,33582
35.77,33695
35.775,33667
35.78,33721
35.785,33772
35.79,33841
35.795,33794
35.8,33740
35.805,33743
35.81,33832
35.815,33771
35.82,33665
35.825,33687
35.83,33653
35.835,33615
35.84,33603
35.845,33552
35.85,33519
35.855,33344
35.86,33360
35.865,33277
35.87,33181
35.875,33183
35.88,33039
35.885,32972
35.89,33017
35.895,32912
35.9,32867
35.905,32828
35.91,32682
35.915,32727
35.92,32634
35.925,32606
35.93,32576
35.935,32533
35.94,32463
35.945,32446
35.95,32425
35.955,32432
35.96,32293
35.965,32404
35.97,32303
35.975,32400
35.98,32325
35.985,32360
35.99,32278
35.995,32340
36.0,32285
36.005,32279
36.01,32274
36.015,32163
36.02,32195
36.025,32186
36.03,32243
36.035,32229
36.04,32264
36.045,32244
36.05,32274
36.055,32202
36.06,32237
36.065,32205
36.07,32179
36.075,32155
36.08,32214
36.085,32182
36.09,32194
36.095,32177
36.1,32171
36.105,32310
36.11,32208
36.115,32158
36.12,32197
36.125,32203
36.13,32148
36.135,32238
36.14,32164
36.145,32215
36.15,32178
36.155,32164
36.16,32309
36.165,32168
36.17,32134
36.175,32169
36.18,32150
36.185,32224
36.19,32199
36.195,32139
36.2,32245
36.205,32171
36.21,32131
36.215,32216
36.22,32199
36.225,32138
36.23,32132
36.235,32167
36.24,32147
36.245,32190
36.25,32180
36.255,32126
36.26,32129
36.265,32160
36.27,32216
36.275,32147
36.28,32194
36.285,32151
36.29,32194
36.295,32163
36.3,32206
36.305,32168
36.31,32186
36.315,32299
36.32,32282
36.325,32226
36.33,32344
36.335,32330
36.34,32427
36.345,32377
36.35,32478
36.355,32529
36.36,32590
36.365,32652
36.37,32852
36.375,32842
36.38,32929
36.385,32984
36.39,33191
36.395,33299
36.4,33358
36.405,33417
36.41,33585
36.415,33653
36.42,33679
36.425,33875
36.43,33879
36.435,33854
36.44,33882
36.445,34267
36.45,34265
36.455,34210
36.46,34159
36.465,34065
36.47,34081
36.475,33912
36.48,33840
36.485,33751
36.49,33630
36.495,33572
36.5,33507
36.505,33280
36.51,33272
36.515,33251
36.52,33192
36.525,33070
36.53,33068
36.535,33019
36.54,32997
36.545,32958
36.55,33019
36.555,33036
36.56,33070
36.565,33048
36.57,33078
36.575,33154
36.58,33279
36.585,33198
36.59,33254
36.595,33374
36.6,33321
36.605,33322
36.61,33500
36.615,33563
36.62,33604
36.625,33631
36.63,33669
36.635,33631
36.64,33716
36.645,33656
36.65,33642
36.655,33691
36.66,33644
36.665,33635
36.67,33629
36.675,33608
36.68,33592
36.685,33507
36.69,33475
36.695,33439
36.7,33393
36.705,33345
36.71,33293
36.715,33208
36.72,33151
36.725,33093
36.73,33002
36.735,32944
36.74,32841
36.745,32821
36.75,32789
36.755,32673
36.76,32692
36.765,32575
36.77,32586
36.775,32564
36.78,32472
36.785,32412
36.79,32410
36.795,32349
36.8,32303
36.805,32350
36.81,32220
36.815,32304
36.82,32225
36.825,32273
36.83,32207
36.835,32281
36.84,32186
36.845,32114
36.85,32295
36.855,32182
36.86,32171
36.865,32170
36.87,32154
36.875,32172
36.88,32130
36.885,32234
36.89,32126
36.895,32173
36.9,32196
36.905,32136
36.91,32174
36.915,32120
36.92,32102
36.925,32107
36.93,32174
36.935,32171
36.94,32098
36.945,32167
36.95,32095
36.955,32133
36.96,32150
36.965,32048
36.97,32144
36.975,32109
36.98,32064
36.985,32142
36.99,32126
36.995,32127
37.0,32102
37.005,32086
37.01,32061
37.015,32100
37.02,32068
37.025,32089
37.03,32118
37.035,32131
37.04,32117
37.045,32110
37.05,32089
37.055,32132
37.06,32139
37.065,32077
37.07,32078
37.075,32058
37.08,32082
37.085,32076
37.09,32164
37.095,32142
37.1,32044
37.105,32123
37.11,32089
37.115,32038
37.12,32116
37.125,32089
37.13,32135
37.135,32155
37.14,32128
37.145,32226
37.15,32201
37.155,32196
37.16,32201
37.165,32383
37.17,32321
37.175,32408
37.18,32480
37.185,32573
37.19,32571
37.195,32617
37.2,32803
37.205,32843
37.21,32990
37.215,33181
37.22,33191
37.225,33311
37.23,33348
37.235,33595
37.24,33561
37.245,33668
37.25,33715
37.255,33750
37.26,33849
37.265,33822
37.27,34123
37.275,34119
37.28,34094
37.285,34059
37.29,33999
37.295,33890
37.3,33817
37.305,33821
37.31,33641
37.315,33603
37.32,33441
37.325,33376
37.33,33251
37.335,33120
37.34,33098
37.345,33086
37.35,33046
37.355,32996
37.36,32905
37.365,32893
37.37,32853
37.375,32906
37.38,32936
37.385,32934
37.39,32925
37.395,33002
37.4,33031
37.405,33090
37.41,33114
37.415,33179
37.42,33198
37.425,33246
37.43,33236
37.435,33387
37.44,33432
37.445,33434
37.45,33565
37.455,33587
37.46,33633
37.465,33587
37.47,33597
37.475,33625
37.48,33646
37.485,33660
37.49,33554
37.495,33560
37.5,33462
37.505,33490
37.51,33491
37.515,33435
37.52,33444
37.525,33326
37.53,33225
37.535,33150
37.54,33123
37.545,33108
37.55,32935
37.555,32880
37.56,32853
37.565,32775
37.57,32758
37.575,32650
37.58,32612
37.585,32557
37.59,32515
37.595,32510
37.6,32369
37.605,32313
37.61,32286
37.615,32296
37.62,32281
37.625,32270
37.63,32237
37.635,32209
37.64,32120
37.645,32144
37.65,32169
37.655,32095
37.66,32111
37.665,32103
37.67,32128
37.675,32070
37.68,32034
37.685,32076
37.69,32074
37.695,32111
37.7,32054
37.705,32064
37.71,32050
37.715,32049
37.72,32140
37.725,31968
37.73,32081
37.735,32028
37.74,32058
37.745,31996
37.75,32058
37.755,32020
37.76,32068
37.765,32096
37.77,31998
37.775,31984
37.78,32083
37.785,32111
37.79,32038
37.795,31960
37.8,31977
37.805,32068
37.81,32096
37.815,32026
37.82,31979
37.825,32070
37.83,31976
37.835,32000
37.84,32000
37.845,31998
37.85,32040
37.855,31984
37.86,32023
37.865,32057
37.87,32055
37.875,32063
37.88,31999
37.885,31949
37.89,32017
37.895,32017
37.9,32018
37.905,31992
37.91,32022
37.915,31967
37.92,32033
37.925,32067
37.93,32007
37.935,32003
37.94,32024
37.945,32021
37.95,32022
37.955,32009
37.96,31993
37.965,32063
37.97,31965
37.975,32054
37.98,31988
37.985,32045
37.99,32004
37.995,31996
38.0,32032
38.005,32057
38.01,32168
38.015,32129
38.02,32163
38.025,32198
38.03,32285
38.035,32345
38.04,32434
38.045,32463
38.05,32495
38.055,32627
38.06,32758
38.065,32855
38.07,32896
38.075,33021
38.08,33158
38.085,33230
38.09,33300
38.095,33451
38.1,33515
38.105,33612
38.11,33692
38.115,33688
38.12,33694
38.125,33720
38.13,34091
38.135,34041
38.14,34025
38.145,33928
38.15,33899
38.155,33776
38.16,33683
38.165,33613
38.17,33513
38.175,33411
38.18,33326
38.185,33268
38.19,33123
38.195,33006
38.2,33016
38.205,33010
38.21,32932
38.215,32812
38.22,32846
38.225,32855
38.23,32843
38.235,32883
38.24,32862
38.245,32753
38.25,32907
38.255,32895
38.26,32932
38.265,32950
38.27,33016
38.275,33101
38.28,33207
38.285,33261
38.29,33294
38.295,33364
38.3,33350
38.305,33375
38.31,33512
38.315,33490
38.32,33485
38.325,33543
38.33,33499
38.335,33587
38.34,33477
38.345,33493
38.35,33487
38.355,33460
38.36,33389
38.365,33426
38.37,33373
38.375,33302
38.38,33266
38.385,33169
38.39,33160
38.395,33040
38.4,32957
38.405,32923
38.41,32856
38.415,32811
38.42,32759
38.425,32734
38.43,32563
38.435,32495
38.44,32509
38.445,32495
38.45,32437
38.455,32350
38.46,32304
38.465,32264
38.47,32305
38.475,32201
38.48,32192
38.485,32110
38.49,32165
38.495,32106
38.5,32084
38.505,32067
38.51,32059
38.515,32150
38.52,32063
38.525,32056
38.53,31996
38.535,31965
38.54,31932
38.545,31984
38.55,32006
38.555,32004
38.56,31939
38.565,32013
38.57,31965
38.575,32024
38.58,31971
38.585,31980
38.59,31949
38.595,31949
38.6,31973
38.605,31991
38.61,31995
38.615,31941
38.62,31920
38.625,31979
38.63,32008
38.635,31942
38.64,31943
38.645,31941
38.65,31968
38.655,31989
38.66,31919
38.665,31967
38.67,32002
38.675,31970
38.68,31919
38.685,31893
38.69,31946
38.695,31992
38.7,31971
38.705,31993
38.71,31926
38.715,31940
38.72,31908
38.725,31955
38.73,31927
38.735,31905
38.74,31918
38.745,31951
38.75,31962
38.755,31958
38.76,32013
38.765,31955
38.77,31895
38.775,31967
38.78,31898
38.785,31890
38.79,31958
38.795,31914
38.8,31940
38.805,31927
38.81,31947
38.815,31902
38.82,32010
38.825,32039
38.83,32007
38.835,32087
38.84,32104
38.845,32153
38.85,32207
38.855,32161
38.86,32293
38.865,32324
38.87,32431
38.875,32476
38.88,32648
38.885,32729
38.89,32769
38.895,32889
38.9,32988
38.905,33063
38.91,33193
38.915,33225
38.92,33304
38.925,33481
38.93,33528
38.935,33562
38.94,33601
38.945,33604
38.95,33662
38.955,33929
38.96,33974
38.965,33940
38.97,33852
38.975,33847
38.98,33760
38.985,33654
38.99,33527
38.995,33435
39.0,33327
39.005,33195
39.01,33173
39.015,33112
39.02,32952
39.025,32948
39.03,32866
39.035,32828
39.04,32811
39.045,32790
39.05,32716
39.055,32761
39.06,32723
39.065,32659
39.07,32847
39.075,32805
39.08,32828
39.085,32930
39.09,32944
39.095,32957
39.1,33036
39.105,33093
39.11,33126
39.115,33099
39.12,33240
39.125,33246
39.13,33285
39.135,33361
39.14,33469
39.145,33374
39.15,33447
39.155,33394
39.16,33394
39.165,33436
39.17,33472
39.175,33431
39.18,33406
39.185,33408
39.19,33343
39.195,33260
39.2,33197
39.205,33166
39.21,33132
39.215,33047
39.22,32986
39.225,32910
39.23,32835
39.235,32755
39.24,32704
39.245,32732
39.25,32644
39.255,32595
39.26,32491
39.265,32427
39.27,32408
39.275,32316
39.28,32326
39.285,32247
39.29,32232
39.295,32140
39.3,32202
39.305,32115
39.31,32105
39.315,32031
39.32,32012
39.325,32044
39.33,31943
39.335,32033
39.34,31954
39.345,32000
39.35,31932
39.355,31946
39.36,31943
39.365,31967
39.37,31897
39.375,31943
39.38,31930
39.385,31943
39.39,31882
39.395,31909
39.4,31879
39.405,31890
39.41,31940
39.415,31942
39.42,31863
39.425,31889
39.43,31891
39.435,31857
39.44,31875
39.445,31849
39.45,31906
39.455,31850
39.46,31934
39.465,31811
39.47,31901
39.475,31900
39.48,31853
39.485,31814
39.49,31880
39.495,31828
39.5,31911
39.505,31874
39.51,31868
39.515,31871
39.52,31893
39.525,31864
39.53,31884
39.535,31876
39.54,31844
39.545,31902
39.55,31920
39.555,31903
39.56,31869
39.565,31891
39.57,31832
39.575,31845
39.58,31850
39.585,31869
39.59,31932
39.595,31887
39.6,31911
39.605,31903
39.61,31960
39.615,31958
39.62,32089
39.625,32098
39.63,32190
39.635,32267
39.64,32303
39.645,32375
39.65,32452
39.655,32523
39.66,32557
39.665,32743
39.67,32817
39.675,32913
39.68,33034
39.685,33157
39.69,33281
39.695,33312
39.7,33384
39.705,33538
39.71,33576
39.715,33627
39.72,33614
39.725,33907
39.73,33959
39.735,33927
39.74,33818
39.745,33796
39.75,33750
39.755,33719
39.76,33585
39.765,33468
39.77,33344
39.775,33239
39.78,33158
39.785,33046
39.79,33009
39.795,32915
39.8,32834
39.805,32749
39.81,32743
39.815,32692
39.82,32694
39.825,32634
39.83,32689
39.835,32668
39.84,32758
39.845,32687
39.85,32817
39.855,32889
39.86,32828
39.865,32950
39.87,32968
39.875,32936
39.88,33013
39.885,33122
39.89,33147
39.895,33216
39.9,33245
39.905,33323
39.91,33298
39.915,33298
39.92,33335
39.925,33375
39.93,33353
39.935,33386
39.94,33374
39.945,33357
39.95,33346
39.955,33306
39.96,33321
39.965,33249
39.97,33227
39.975,33097
39.98,33094
39.985,33017
39.99,32902
39.995,32981
40.0,32795
40.005,32806
40.01,32737
40.015,32687
40.02,32566
40.025,32428
40.03,32482
40.035,32399
40.04,32372
40.045,32292
40.05,32296
40.055,32224
40.06,32152
40.065,32213
40.07,32072
40.075,31984
40.08,32038
40.085,32026
40.09,32007
40.095,31948
40.1,31949
40.105,31904
40.11,31906
40.115,31933
40.12,31880
40.125,31915
40.13,31873
40.135,31878
40.14,31858
40.145,31905
40.15,31863
40.155,31827
40.16,31856
40.165,31891
40.17,31855
40.175,31805
40.18,31813
40.185,31801
40.19,31884
40.195,31840
40.2,31863
40.205,31859
40.21,31816
40.215,31866
40.22,31821
40.225,31835
40.23,31749
40.235,31816
40.24,31803
40.245,31789
40.25,31822
40.255,31768
40.26,31802
40.265,31719
40.27,31801
40.275,31782
40.28,31868
40.285,31811
40.29,31824
40.295,31697
40.3,31785
40.305,31757
40.31,31845
40.315,31831
40.32,31800
40.325,31800
40.33,31797
40.335,31790
40.34,31814
40.345,31811
40.35,31783
40.355,31762
40.36,31845
40.365,31771
40.37,31760
40.375,31869
40.38,31791
40.385,31782
40.39,31741
40.395,31755
40.4,31845
40.405,31790
40.41,31850
40.415,31780
40.42,31860
40.425,31851
40.43,31851
40.435,31825
40.44,31966
40.445,31957
40.45,31992
40.455,32072
40.46,32059
40.465,32209
40.47,32257
40.475,32326
40.48,32413
40.485,32460
40.49,32576
40.495,32700
40.5,32771
40.505,32913
40.51,33000
40.515,33125
40.52,33119
40.525,33319
40.53,33327
40.535,33386
40.54,33458
40.545,33559
40.55,33549
40.555,33876
40.56,33885
40.565,33856
40.57,33812
40.575,33745
40.58,33650
40.585,33576
40.59,33419
40.595,33368
40.6,33198
40.605,33177
40.61,33090
40.615,32969
40.62,32894
40.625,32876
40.63,32760
40.635,32717
40.64,32740
40.645,32650
40.65,32649
40.655,32621
40.66,32624
40.665,32653
40.67,32623
40.675,32684
40.68,32673
40.685,32715
40.69,32796
40.695,32799
40.7,32779
40.705,32916
40.71,33023
40.715,32993
40.72,33101
40.725,33114
40.73,33118
40.735,33200
40.74,33164
40.745,33317
40.75,33283
40.755,33326
40.76,33321
40.765,33269
40.77,33301
40.775,33343
40.78,33308
40.785,33237
40.79,33190
40.795,33171
40.8,33081
40.805,33084
40.81,32961
40.815,32933
40.82,32928
40.825,32833
40.83,32744
40.835,32707
40.84,32627
40.845,32580
40.85,32546
40.855,32442
40.86,32326
40.865,32345
40.87,32248
40.875,32267
40.88,32214
40.885,32134
40.89,32111
40.895,32006
40.9,31962
40.905,31981
40.91,31978
40.915,31990
40.92,31896
40.925,31868
40.93,31853
40.935,31842
40.94,31862
40.945,31793
40.95,31861
40.955,31778
40.96,31898
40.965,31806
40.97,31808
40.975,31741
40.98,31806
40.985,31724
40.99,31818
40.995,31762
41.0,31791
41.005,31798
41.01,31811
41.015,31823
41.02,31813
41.025,31798
41.03,31748
41.035,31728
41.04,31793
41.045,31777
41.05,31745
41.055,31760
41.06,31794
41.065,31791
41.07,31736
41.075,31710
41.08,31687
41.085,31737
41.09,31741
41.095,31704
41.1,31787
41.105,31816
41.11,31720
41.115,31772
41.12,31741
41.125,31764
41.13,31749
41.135,31739
41.14,31774
41.145,31764
41.15,31723
41.155,31754
41.16,31715
41.165,31733
41.17,31755
41.175,31749
41.18,31677
41.185,31751
41.19,31687
41.195,31736
41.2,31753
41.205,31674
41.21,31688
41.215,31754
41.22,31735
41.225,31650
41.23,31756
41.235,31700
41.24,31680
41.245,31731
41.25,31699
41.255,31724
41.26,31732
41.265,31811
41.27,31761
41.275,31741
41.28,31740
41.285,31756
41.29,31771
41.295,31743
41.3,31799
41.305,31775
41.31,31803
41.315,31848
41.32,31921
41.325,31955
41.33,31868
41.335,32038
41.34,32060
41.345,32131
41.35,32258
41.355,32266
41.36,32347
41.365,32412
41.37,32543
41.375,32720
41.38,32769
41.385,32868
41.39,33022
41.395,33071
41.4,33171
41.405,33251
41.41,33363
41.415,33380
41.42,33428
41.425,33464
41.43,33736
41.435,33779
41.44,33694
41.445,33670
41.45,33637
41.455,33586
41.46,33492
41.465,33450
41.47,33322
41.475,33242
41.48,33108
41.485,33008
41.49,33000
41.495,32799
41.5,32823
41.505,32689
41.51,32683
41.515,32569
41.52,32598
41.525,32569
41.53,32472
41.535,32522
41.54,32576
41.545,32607
41.55,32608
41.555,32610
41.56,32667
41.565,32667
41.57,32726
41.575,32820
41.58,32864
41.585,32942
41.59,32976
41.595,33041
41.6,33065
41.605,33135
41.61,33241
41.615,33154
41.62,33223
41.625,33225
41.63,33275
41.635,33283
41.64,33239
41.645,33267
41.65,33256
41.655,33224
41.66,33211
41.665,33214
41.67,33146
41.675,33069
41.68,33035
41.685,33041
41.69,32890
41.695,32889
41.7,32762
41.705,32664
41.71,32630
41.715,32601
41.72,32515
41.725,32435
41.73,32371
41.735,32305
41.74,32245
41.745,32207
41.75,32090
41.755,32146
41.76,32097
41.765,32050
41.77,32042
41.775,31955
41.78,31945
41.785,31826
41.79,31900
41.795,31857
41.8,31873
41.805,31865
41.81,31813
41.815,31762
41.82,31807
41.825,31815
41.83,31808
41.835,31750
41.84,31729
41.845,31746
41.85,31714
41.855,31670
41.86,31756
41.865,31755
41.87,31759
41.875,31703
41.88,31730
41.885,31686
41.89,31674
41.895,31741
41.9,31658
41.905,31709
41.91,31803
41.915,31761
41.92,31740
41.925,31737
41.93,31707
41.935,31691
41.94,31782
41.945,31703
41.95,31688
41.955,31731
41.96,31704
41.965,31751
41.97,31682
41.975,31674
41.98,31687
41.985,31757
41.99,31733
41.995,31708
42.0,31701
42.005,31709
42.01,31661
42.015,31712
42.02,31676
42.025,31701
42.03,31692
42.035,31701
42.04,31673
42.045,31722
42.05,31700
42.055,31660
42.06,31701
42.065,31673
42.07,31698
42.075,31713
42.08,31666
42.085,31681
42.09,31684
42.095,31683
42.1,31753
42.105,31694
42.11,31642
42.115,31688
42.12,31667
42.125,31775
42.13,31671
42.135,31660
42.14,31733
42.145,31699
42.15,31717
42.155,31738
42.16,31743
42.165,31777
42.17,31744
42.175,31855
42.18,31923
42.185,32016
42.19,32009
42.195,32101
42.2,32118
42.205,32275
42.21,32358
42.215,32385
42.22,32461
42.225,32579
42.23,32739
42.235,32748
42.24,32943
42.245,32965
42.25,33068
42.255,33195
42.26,33287
42.265,33364
42.27,33432
42.275,33378
42.28,33440
42.285,33789
42.29,33753
42.295,33749
42.3,33661
42.305,33586
42.31,33443
42.315,33372
42.32,33376
42.325,33213
42.33,33167
42.335,33084
42.34,32963
42.345,32915
42.35,32776
42.355,32747
42.36,32658
42.365,32558
42.37,32498
42.375,32531
42.38,32576
42.385,32551
42.39,32529
42.395,32552
42.4,32576
42.405,32564
42.41,32654
42.415,32657
42.42,32676
42.425,32880
42.43,32818
42.435,32843
42.44,32927
42.445,32909
42.45,32959
42.455,33118
42.46,33115
42.465,33094
42.47,33108
42.475,33189
42.48,33177
42.485,33275
42.49,33166
42.495,33277
42.5,33189
42.505,33164
42.51,33187
42.515,33111
42.52,33098
42.525,33057
42.53,32942
42.535,32933
42.54,32931
42.545,32785
42.55,32747
42.555,32699
42.56,32699
42.565,32633
42.57,32588
42.575,32436
42.58,32437
42.585,32355
42.59,32242
42.595,32251
42.6,32179
42.605,32106
42.61,32045
42.615,31983
42.62,32020
42.625,31982
42.63,31923
42.635,31890
42.64,31856
42.645,31881
42.65,31840
42.655,31750
42.66,31801
42.665,31800
42.67,31749
42.675,31743
42.68,31729
42.685,31765
42.69,31721
42.695,31728
42.7,31727
42.705,31774
42.71,31661
42.715,31795
42.72,31665
42.725,31697
42.73,31674
42.735,31705
42.74,31718
42.745,31780
42.75,31738
42.755,31669
42.76,31700
42.765,31695
42.77,31665
42.775,31709
42.78,31696
42.785,31669
42.79,31659
42.795,31708
42.8,31677
42.805,31723
42.81,31710
42.815,31634
42.82,31601
42.825,31677
42.83,31650
42.835,31636
42.84,31646
42.845,31724
42.85,31662
42.855,31738
42.86,31697
42.865,31605
42.87,31683
42.875,31719
42.88,31601
42.885,31618
42.89,31659
42.895,31642
42.9,31722
42.905,31629
42.91,31721
42.915,31608
42.92,31627
42.925,31669
42.93,31675
42.935,31661
42.94,31713
42.945,31720
42.95,31725
42.955,31650
42.96,31684
42.965,31643
42.97,31704
42.975,31569
42.98,31630
42.985,31646
42.99,31638
42.995,31715
43.0,31611
43.005,31636
43.01,31628
43.015,31678
43.02,31657
43.025,31737
43.03,31752
43.035,31664
43.04,31688
43.045,31825
43.05,31846
43.055,31817
43.06,31922
43.065,31904
43.07,32043
43.075,32039
43.08,32145
43.085,32273
43.09,32352
43.095,32488
43.1,32569
43.105,32607
43.11,32777
43.115,32834
43.12,33029
43.125,33131
43.13,33204
43.135,33320
43.14,33335
43.145,33411
43.15,33428
43.155,33446
43.16,33770
43.165,33731
43.17,33751
43.175,33597
43.18,33516
43.185,33471
43.19,33472
43.195,33315
43.2,33200
43.205,33102
43.21,33054
43.215,32942
43.22,32900
43.225,32764
43.23,32736
43.235,32609
43.24,32607
43.245,32656
43.25,32509
43.255,32493
43.26,32524
43.265,32456
43.27,32486
43.275,32504
43.28,32561
43.285,32538
43.29,32680
43.295,32679
43.3,32730
43.305,32769
43.31,32826
43.315,32797
43.32,32979
43.325,32951
43.33,33060
43.335,33069
43.34,33106
43.345,33165
43.35,33235
43.355,33192
43.36,33188
43.365,33233
43.37,33126
43.375,33176
43.38,33155
43.385,33155
43.39,33089
43.395,33132
43.4,33048
43.405,33016
43.41,32959
43.415,32891
43.42,32818
43.425,32826
43.43,32745
43.435,32704
43.44,32578
43.445,32529
43.45,32468
43.455,32380
43.46,32330
43.465,32214
43.47,32174
43.475,32131
43.48,32074
43.485,32085
43.49,32040
43.495,32002
43.5,31942
43.505,31956
43.51,31923
43.515,31884
43.52,31828
43.525,31875
43.53,31758
43.535,31725
43.54,31723
43.545,31801
43.55,31750
43.555,31716
43.56,31646
43.565,31714
43.57,31680
43.575,31636
43.58,31746
43.585,31704
43.59,31749
43.595,31695
43.6,31714
43.605,31666
43.61,31711
43.615,31672
43.62,31707
43.625,31691
43.63,31642
43.635,31681
43.64,31685
43.645,31652
43.65,31672
43.655,31709
43.66,31719
43.665,31675
43.67,31590
43.675,31698
43.68,31736
43.685,31660
43.69,31637
43.695,31678
43.7,31673
43.705,31697
43.71,31641
43.715,31726
43.72,31695
43.725,31625
43.73,31698
43.735,31655
43.74,31684
43.745,31671
43.75,31659
43.755,31668
43.76,31640
43.765,31628
43.77,31645
43.775,31643
43.78,31667
43.785,31659
43.79,31593
43.795,31681
43.8,31649
43.805,31681
43.81,31675
43.815,31661
43.82,31672
43.825,31601
43.83,31711
43.835,31728
43.84,31685
43.845,31649
43.85,31701
43.855,31673
43.86,31756
43.865,31697
43.87,31691
43.875,31727
43.88,31759
43.885,31846
43.89,31859
43.895,31919
43.9,31952
43.905,32074
43.91,32098
43.915,32183
43.92,32317
43.925,32364
43.93,32433
43.935,32545
43.94,32669
43.945,32750
43.95,32815
43.955,32989
43.96,32993
43.965,33059
43.97,33183
43.975,33219
43.98,33336
43.985,33384
43.99,33398
43.995,33717
44.0,33686
44.005,33727
44.01,33578
44.015,33615
44.02,33527
44.025,33433
44.03,33363
44.035,33197
44.04,33192
44.045,33079
44.05,33007
44.055,32804
44.06,32804
44.065,32715
44.07,32572
44.075,32588
44.08,32557
44.085,32494
44.09,32514
44.095,32510
44.1,32473
44.105,32486
44.11,32544
44.115,32508
44.12,32595
44.125,32664
44.13,32660
44.135,32723
44.14,32762
44.145,32843
44.15,32813
44.155,32858
44.16,32939
44.165,32996
44.17,33098
44.175,33153
44.18,33160
44.185,33213
44.19,33176
44.195,33188
44.2,33160
44.205,33259
44.21,33230
44.215,33196
44.22,33128
44.225,33112
44.23,33131
44.235,33072
44.24,33066
44.245,32982
44.25,32894
44.255,32818
44.26,32798
44.265,32793
44.27,32741
44.275,32577
44.28,32557
44.285,32448
44.29,32420
44.295,32248
44.3,32268
44.305,32169
44.31,32233
44.315,32117
44.32,32101
44.325,32042
44.33,31953
44.335,31987
44.34,31970
44.345,31909
44.35,31894
44.355,31890
44.36,31849
44.365,31805
44.37,31734
44.375,31748
44.38,31738
44.385,31782
44.39,31793
44.395,31737
44.4,31765
44.405,31637
44.41,31728
44.415,31671
44.42,31743
44.425,31751
44.43,31743
44.435,31729
44.44,31739
44.445,31761
44.45,31676
44.455,31749
44.46,31680
44.465,31641
44.47,31710
44.475,31715
44.48,31698
44.485,31662
44.49,31706
44.495,31675
44.5,31771
44.505,31694
44.51,31695
44.515,31661
44.52,31700
44.525,31738
44.53,31651
44.535,31663
44.54,31607
44.545,31672
44.55,31731
44.555,31629
44.56,31657
44.565,31643
44.57,31659
44.575,31641
44.58,31655
44.585,31627
44.59,31674
44.595,31700
44.6,31692
44.605,31597
44.61,31711
44.615,31688
44.62,31703
44.625,31630
44.63,31639
44.635,31685
44.64,31723
44.645,31625
44.65,31669
44.655,31675
44.66,31647
44.665,31672
44.67,31642
44.675,31707
44.68,31605
44.685,31677
44.69,31651
44.695,31672
44.7,31648
44.705,31581
44.71,31754
44.715,31740
44.72,31746
44.725,31751
44.73,31790
44.735,31799
44.74,31851
44.745,31941
44.75,31920
44.755,31969
44.76,32133
44.765,32123
44.77,32230
44.775,32272
44.78,32395
44.785,32498
44.79,32584
44.795,32652
44.8,32761
44.805,32903
44.81,33068
44.815,33035
44.82,33182
44.825,33279
44.83,33306
44.835,33385
44.84,33406
44.845,33456
44.85,33809
44.855,33717
44.86,33703
44.865,33657
44.87,33582
44.875,33501
44.88,33339
44.885,33328
44.89,33191
44.895,33117
44.9,33053
44.905,32966
44.91,32843
44.915,32762
44.92,32698
44.925,32609
44.93,32652
44.935,32619
44.94,32522
44.945,32568
44.95,32532
44.955,32470
44.96,32554
44.965,32567
44.97,32579
44.975,32557
44.98,32630
44.985,32615
44.99,32746
44.995,32789
45.0,32813
45.005,32861
45.01,33006
45.015,32954
45.02,33081
45.025,33102
45.03,33181
45.035,33112
45.04,33201
45.045,33261
45.05,33224
45.055,33185
45.06,33165
45.065,33200
45.07,33245
45.075,33239
45.08,33156
45.085,33149
45.09,33110
45.095,33047
45.1,32942
45.105,32941
45.11,32819
45.115,32797
45.12,32757
45.125,32702
45.13,32594
45.135,32573
45.14,32524
45.145,32441
45.15,32345
45.155,32300
45.16,32235
45.165,32184
45.17,32160
45.175,32127
45.18,32047
45.185,32035
45.19,31982
45.195,31947
45.2,31878
45.205,31901
45.21,31860
45.215,31854
45.22,31862
45.225,31837
45.23,31822
45.235,31766
45.24,31717
45.245,31751
45.25,31756
45.255,31757
45.26,31793
45.265,31750
45.27,31786
45.275,31717
45.28,31690
45.285,31756
45.29,31683
45.295,31665
45.3,31699
45.305,31729
45.31,31755
45.315,31715
45.32,31745
45.325,31711
45.33,31653
45.335,31670
45.34,31649
